598644036.7,812670808,188472284.3,622148129.3,2926816.622,2851790.673,1014913.354,2027043.801,24482.87799,28522.94894,13772.67397,24961.30168,839175840482,1138982062511,265561167765,872293214284,599411314.6,813558616.1,189686548.4,623066581.6,175.7142857,157.8571429,40.71428571,117.8571429
382066389.6,486884276.4,66985413.4,250715572.2,2498335.442,2585819.366,871976.7397,1725720.18,19558.86332,22074.48436,8281.776061,15855.80858,535568788173,682196003946,96022940622,351969332142,382549134.4,487282860,68587814.73,251406665.8,240,240,26.42857143,132.8571429
249596700.7,271869712.4,152831627.7,89250926.75,3119060.958,3147370,1048639.38,1399126.42,15862.88572,16555.16508,12418.07256,9546.66286,352283600769,383702887344,215891936715,127594280465,251631143.4,274073491,154208526.2,91138771.76,167.8571429,162.8571429,55,57.85714286
9481787988,23805624952,4573290135,1535457162,6158367.54,7329263.119,3181870.011,2739253.649,97344.75053,154237.8463,67617.25134,39177.85789,13266400639183,33305038529981,6400929750895,2148866368758,9476000457,23789313236,4572092679,1534904549,247.8571429,270,129.2857143,191.4285714
2839424801,4727157289,484880357.9,1355426325,4150776.691,4190482.75,1615824.606,2332871.772,53277.06339,68735.86544,22055.60879,36818.9442,3973823676625,6614466876897,681029830626,1897888512538,2838445483,4724619198,486449879,1355634652,227.1428571,240,101.4285714,142.1428571
228678319.5,274074331.2,14109119.7,74335546.35,3524479.672,3389749.628,865479.5957,1617521.138,15167.12883,16597.13968,3959.173729,8701.898184,322058515708,385651063906,21945079258,106012244807,230041796.9,275465045.6,15675056.61,75723032,200.7142857,185.7142857,38.57142857,102.1428571
3831401085,5328592785,275675244,596480780.1,5317985.775,5222206.653,1566496.069,2532560.006,61879.75392,72973.71018,16650.42344,24431.58054,5360745523953,7455227329206,388131240804,835662979083,3829103946,5325162378,277236600.6,596902127.9,300.7142857,300.7142857,107.1428571,192.8571429
886827798,1133792276,53234906.17,382920333.2,4817114.582,4635900.989,1220054.911,2211820.061,29801.02131,33686.68476,7411.148096,19603.19791,1243341219354,1588709822498,76895162537,537999515727,888100871,1134792730,54925116.1,384285368.4,240,240,89.28571429,132.8571429
189950035.7,203847576.2,6327700.598,49447735.65,4744986.952,4571913.901,834546.2684,2233363.01,13850.65323,14350.63847,2790.139337,7177.47474,268576832987,288317154463,10898828529,72122601092,191840595,205940824.6,7784877.521,51516143.64,240.7142857,240.7142857,29.28571429,112.1428571
168953456.7,191991366.2,6218206.053,25798554.24,4131137.194,3986445.052,707095.851,1968632.061,13056.06089,13911.13782,2795.690833,5242.723899,238645016355,270927657648,10942242125,38480615440,170460726,193519755.5,7815887.232,27486153.89,241.4285714,240.7142857,16.42857143,97.85714286
89800864.04,95253430.04,2109553.86,15216896.31,3814331.508,3803194.717,729808.4969,1892175.863,9571.470809,9853.057534,1930.644897,4110.024463,128258274819,135915839863,5218345605,23649221517,91613053.44,97082742.76,3727389.718,16892301.08,240.7142857,240.7142857,10,99.28571429
1084164158,1282206155,35678639.67,142477963.3,5064477.935,4905102.611,1405875.147,2290716.961,32963.97691,35843.15187,6095.621917,12027.15558,1521273282785,1798624150645,52019249178,202513459932,1086623773,1284731536,37156606.56,144652471.4,207.8571429,205.7142857,100.7142857,106.4285714
187685859.6,191701668.2,11644296.87,34306022.18,3437803.552,3419387.4,962270.3762,1834206.44,13772.94935,13918.27146,3642.225693,6008.289762,265571787327,271205592550,18572131193,50539364210,189694133.8,193718280.4,13265808,36099545.86,163.5714286,177.8571429,54.28571429,105
242175365.7,285769128.7,34045413.97,57068837.27,3697376.029,3556868.605,987582.7082,1588349.748,15600.28732,16936.91764,5978.230845,7642.23771,340716550356,401602850792,50034941645,81765316111,243368964.5,286859179.1,35739244.03,58403797.22,238.5714286,240,52.85714286,110
76343178.15,80824050.57,2483963.559,17359717.31,3588240.285,3667193.499,874496.1866,1955876.587,8807.834856,9058.990512,2026.701402,4344.460051,108609136797,114891432732,5750526002,26424066388,77577954.85,82065309.09,4107518.573,18874333.13,241.4285714,248.5714286,42.14285714,127.1428571
57018037.94,59374427.44,2775202.775,13096101.39,4008311.532,4159901.925,947909.8148,2194417.562,7651.943723,7801.718602,2109.751266,3843.68385,81973139830,85213538405,6231470568,20683467759,58552242.74,60866813.15,4451050.406,14773905.54,278.5714286,300,46.42857143,125.7142857
81126532.8,84760935.02,2740885.522,14875533.68,4299140.13,4376483.211,974730.4986,2260281.446,9103.30238,9301.207258,2089.491489,4066.591451,116018159916,121117439029,6112364554,23152032446,82870114.23,86512456.45,4365974.682,16537166.03,242.1428571,260.7142857,51.42857143,132.8571429
1079624910,1533485795,80212698.34,153028151.3,4787627.233,4559790.851,1836645.56,2459925.217,32873.44455,39169.66879,9040.77549,12436.68158,1512928699135,2147968134862,114429870045,216539468226,1080663357,1534262953,81735621.46,154671048.7,232.8571429,240,127.1428571,147.1428571
153850902.7,138096082.3,3304737.579,13360339.48,3815324.309,3940922.054,498566.4772,1618747.316,12470.62637,11827.67197,2197.481173,3884.909928,217723130804,195851353840,6760492909,21129535213,155516522,139893824.2,4828923.507,15092525.15,240.7142857,240.7142857,6.428571429,64.28571429
133270158.1,150649501.3,15546051.17,10312843.27,3335101.224,3465753.239,472300.0547,1467759.227,11651.03342,12377.9825,4134.865377,3498.704758,190045211637,214500230971,23935956361,17137308975,135746579.7,153214450.7,17097111.69,12240934.98,238.5714286,240,14.28571429,62.14285714
1115702775,1430395043,141962336.6,210474563.7,4421833.663,4139664.212,1873517.836,2195563.501,33401.12281,37816.61909,11979.06142,14551.18975,1561889007354,2002135350638,200897077409,296431972315,1115635005,1430096679,143497912.4,211737123.1,252.1428571,288.5714286,127.8571429,150
71335421.37,76336575.39,1804009.41,7213541.955,3889664.461,3958777.595,694354.8435,1728610.542,8535.967456,8824.953118,1849.193426,2972.791344,102007836571,109031716550,4787322858,12372483727,72862740.41,77879797.54,3419516.327,8837488.376,240.7142857,240.7142857,5,95.71428571
66350440.22,51780107.81,13404069.87,10006591.47,3972936.935,4106408.379,860347.3576,1872594.5,8239.349473,7307.971201,3867.048406,3412.450316,95041631632,74769020311,20935688721,16302744021,67886879.74,53406443.08,14954063.37,11644817.16,240.7142857,240.7142857,32.14285714,108.5714286
1004347297,1646747668,111037622.6,294253063,4217993.209,3968379.768,1868561.323,2142961.087,31705.10788,40585.47042,10609.84901,17195.55779,1407299412018,2306052573213,157596454493,413962090635,1005213866,1647180409,112568896.1,295687207.6,217.1428571,240,129.2857143,130
708804499.3,974090184.1,40480509.16,269987522.4,4602169.273,4323652.323,1767923.273,2397181.181,26655.18637,31234.57465,6487.505031,16476.58532,994698544490,1365838115019,58922810137,380069009328,710498960.4,975598653.6,42087721.53,271477863.8,213.5714286,240,133.5714286,145.7142857
96716102.54,91801095.06,1750908.602,5224058.12,3797827.823,3873236.995,678702.3813,1722125.393,9909.901641,9657.540873,1847.651013,2605.866529,137488610761,130575334003,4779339970,9506756512,98206150.54,93268095.72,3413814.264,6790540.366,240.7142857,240.7142857,5.714285714,100
81624729.77,88325798.89,2118859.806,12342434.7,4446883.887,4669452.704,769465.0962,2339762.6,9098.782544,9462.105864,1923.598799,3713.45991,115902981299,125344026331,5180325273,19305698300,82787843.79,89531447.38,3700232.338,13789784.5,300.7142857,300.7142857,22.14285714,196.4285714
60724275.17,64286805.1,2323537.409,9466871.116,4073608.928,4220051.957,779815.9031,2082482.613,7870.714318,8094.962557,1983.42644,3311.609127,86727401436,91739786324,5507572620,15353457011,61948143.88,65528418.8,3933980.443,10966755.01,300.7142857,300.7142857,41.42857143,124.2857143
87043327.79,93322900.45,3494519.199,15144777.85,4453264.366,4592501.991,1012956.782,2408926.419,9425.873785,9754.132656,2261.105843,4091.288246,124385935260,133200345418,7157639487,23434095321,88847096.61,95143103.87,5112599.634,16738639.52,267.1428571,300,72.14285714,159.2857143
2045029715,3040854830,201005082.6,203194705.2,5899102.285,5556611.692,2322147.971,2675665.628,45233.65009,55146.14358,14225.44608,14309.36287,2864516340381,4257536013082,283308642744,286661012022,2046083100,3041097152,202363316.2,204757865.7,240.7142857,240.7142857,149.2857143,170.7142857
803690350.9,1017588158,52588240.97,44775393.12,4542644.598,4572194.424,1130357.036,1636337.882,28425.83867,31967.17466,7357.402912,6836.952529,1131239625868,1430660357766,75783928655,65441487832,808028304.2,1021900256,54131377.61,46743919.88,158.5714286,160,75,100
273810310.9,320715676.7,6512698.106,13889125.98,3146086.717,3100173.131,979188.3107,1522636.083,16575.3387,17930.76458,2875.427185,3927.362333,384638594228,450117245758,11575314092,21593844850,274741853,321512318.4,8268081.494,15424174.89,240,240.7142857,53.57142857,104.2857143
445198212.9,495307530.1,5305260.84,12491646.54,3328646.354,3409667.003,899902.5512,1463226.228,21152.60296,22307.56964,2617.067255,3775.686568,626405656551,696678728319,9588657426,19958132684,447432611.8,497627663.1,6849041.019,14255809.06,140,159.2857143,45.71428571,86.42857143
197733128.7,214705757.3,4100603.068,6336738.835,3354335.59,3534110.911,762672.7,1452511.377,14138.45886,14728.48332,2383.317046,2838.03104,279854426606,303699509450,7952280198,11276188260,199896019,216928221,5680200.141,8054420.186,240.7142857,240.7142857,30,70.71428571
626038301.2,1135819267,207703503.6,61933845.61,4604614.754,3920453.147,2294200.838,2383693.837,25061.76391,33732.39417,14454.22263,7977.928045,879328814558,1593024183218,292494372605,89106270255,628092010.4,1137874417,208924551.9,63647335.9,184.2857143,169.2857143,153.5714286,155
220060479.2,244546144.9,40673019.54,12374085.74,4629513.5,4617066.801,1208537.733,1716548.791,14908.63936,15711.55892,6495.28679,3753.953533,311174538635,345594317319,59064250681,19729033977,222267527.6,246853083.8,42188750.49,14092167.13,212.8571429,220.7142857,92.14285714,122.1428571
157801220.8,188796613.4,7157590.819,5901854.661,2903248.759,2841891.357,746453.4698,1196322.745,12618.96066,13791.06105,2968.35078,2744.451023,222933435508,266270710942,12335548897,10544815984,159238168.2,190193365,8811106.355,7532011.417,170,182.1428571,13.57142857,74.28571429
1685318240,586511637.2,1066040182,28239301.84,3971484.161,2916360.154,2410439.831,1969054.967,41053.98214,24234.12976,32665.66397,5455.562866,2359601229311,822210263056,1493863843210,41668432651,1685429450,587293045,1067045602,29763166.18,185.7142857,171.4285714,141.4285714,144.2857143
223642175.7,223852180,140338623.7,12655177.9,3796069.22,3307536.343,1864667.026,1834513.227,15007.44586,15010.35115,11916.14091,3784.192676,315312803807,315434898497,198792179725,20048159893,225223431.3,225310641.8,141994414.1,14320114.21,175,196.4285714,117.8571429,123.5714286
104529227.4,127146754,3855905.838,5561848.142,2387273.237,2443068.449,781940.9412,1128707.064,10299.46308,11343.799,2343.024114,2673.754281,148510515595,180154486114,7685666801,10008546736,106078939.7,128681775.8,5489762.001,7148961.954,136.4285714,160.7142857,28.57142857,67.14285714
336593978.7,276404944.1,53129401.56,82552919.91,4143930.096,3540364.187,2107926.464,2192438.277,18382.53018,16671.93173,7385.967057,9172.257319,473084382010,389134630521,76373513118,117782426052,337917415.7,277953307.5,54552509.37,84130304.32,204.2857143,195,153.5714286,155
106951104.6,134293597.7,22330737,6399779.94,3277865.877,3176722.906,969537.917,1339746.635,10430.24563,11671.39864,4884.332357,2842.012161,152306033344,190710164580,33399383596,11307846370,108790023.8,136221546.1,23856702.57,8077033.122,167.8571429,167.1428571,64.28571429,90.71428571
493796513.5,692736990.1,26541447.26,24308754.72,3489451.253,3547136.848,917317.6305,1300291.264,22249.69818,26343.20235,5296.258226,5103.87276,693068697046,971550033961,39270491670,36469324016,495049069.3,693964310,28050351.19,26049517.15,190,196.4285714,45.71428571,79.28571429
83481307.38,101590769.6,6366105.354,6060265.825,3379714.38,3427304.026,741802.3093,1323961.423,9212.868148,10147.26766,2829.130592,2765.497896,118827715312,144153857335,11205571869,10707170056,84876939.51,102967041,8003979.907,7647978.611,199.2857143,210.7142857,16.42857143,89.28571429
127600160.7,154205235.5,4507507.066,6067548.428,2100919.392,2126906.862,722814.7292,1019765.984,11391.32128,12503.69422,2479.608242,2784.763238,181667080633,218879316634,8607839847,10856868805,129762200.5,156342369,6148457.034,7754906.289,94.28571429,84.28571429,25.71428571,54.28571429
498901341.9,603157049.8,31112286.5,39734879.34,4725754.884,3870635.419,2171434.393,2278672.818,22348.14059,24566.59755,5733.282565,6415.367393,699215143265,844924801047,46018740551,57619714300,499439388,603517715,32870528.96,41156938.79,222.1428571,237.1428571,150,152.1428571
75811552.83,87850799.03,4154007.915,6351924.744,2554692.375,2543057.431,885357.7262,1325309.707,8773.151771,9432.05264,2413.778645,2810.545145,107755468795,124549063800,8156858284,11058829618,76968192,88963617,5826327.346,7899164.013,177.8571429,240,42.85714286,93.57142857
75863950.66,82398709.88,6900666.584,5036822.645,2945735.103,3004490.607,753987.5273,1223915.021,8774.337131,9140.645578,2913.94415,2569.494159,107784588925,116971962211,11887498714,9243220328,76988992.09,83551401.58,8491070.51,6602300.234,197.8571429,212.8571429,16.42857143,84.28571429
369962449,331918515.1,12873116.98,6293551.473,2817938.454,2822470.501,727739.9715,1081146.472,19267.03871,18254.15096,3806.295453,2811.241061,519706292928,466499637929,20283039111,11064306828,371218780.7,333214027.1,14487885.08,7903076.306,168.5714286,176.4285714,19.28571429,62.85714286
70331144.7,83519241.5,3493703.448,5118646.1,2393201.504,2397158.441,794775.5569,1221861.653,8484.097158,9227.338655,2268.774509,2605.868849,100771866426,119201290115,7206272884,9506773440,71979904.59,85143778.65,5147337.774,6790552.457,143.5714286,168.5714286,40,82.85714286
537891394,551230448.5,25450202.91,19855746.36,4561171.972,3713206.467,2099143.555,2321783.842,23216.6656,23501.98044,5202.877789,4632.869105,754618986417,773280318280,37897912207,30048866597,539013561.7,552343084.5,27069937.29,21463476.14,200,190.7142857,149.2857143,149.2857143
215289200.4,248418350.1,14097028.82,27447377.86,3668153.327,3066498.743,1604777.653,1768659.342,14741.12689,15828.01573,3952.958129,5402.954656,304221150763,350736514595,21876229160,40868686614,217300822,250526081.9,15625877.97,29191919.01,174.2857143,162.1428571,140,127.1428571
65607077.7,73569713.1,3904643.373,5561158.01,2428104.734,2267268.052,903345.2147,1349857.22,8209.840114,8694.007961,2310.614151,2688.841446,94362064567,105820084187,7474512858,10121815653,67401474.69,75585774.42,5338937.756,7229868.323,132.1428571,117.1428571,59.28571429,92.85714286
67084896.25,79996816.27,3172105.697,4697088.228,2560421.118,2581243.467,741539.0501,1256070.397,8291.481753,9036.370854,2191.790183,2517.151142,96248137527,114318397484,6725521888,8870469822,68748669.66,81655998.2,4803944.205,6336049.873,152.1428571,183.5714286,28.57142857,73.57142857
112455758.2,110513226.9,13010419.48,19221822.34,3974833.141,3317594.525,1812067.255,2064610.149,10682.66768,10589.23516,3831.759342,4547.254311,159767144267,156984661931,20555331521,28948530476,114119388.8,112131901.4,14682379.66,20677521.77,189.2857143,183.5714286,134.2857143,147.8571429
165142161.2,148216350.2,11136823.65,14598681.76,4555253.968,3843421.185,1866039.122,2167560.266,12919.80764,12251.66933,3560.853802,4032.13134,233690001193,210144761776,17751551723,22761316400,166921429.4,150103401.3,12679679.8,16258083.14,201.4285714,189.2857143,135.7142857,138.5714286
185364719.5,147874176,33397385.14,27342331.32,4140567.071,3492453.839,1902984.573,2182793.498,13673.3113,12226.33644,5918.399394,5373.118164,261743218824,209276623693,49038431939,40418558320,186959442,149483302.6,35027451.38,28870398.8,183.5714286,175,127.1428571,140.7142857
141229752,123349164,5318114.777,4453275.34,3367174.502,3315701.252,849109.8722,1407535.606,11956.80948,11181.80979,2648.237537,2474.823864,200151410275,175046018310,9818426873,8574654420,142965293.1,125032870.2,7013162.052,6124753.157,172.8571429,185.7142857,13.57142857,98.57142857
386748997.1,471951282.7,129622544,9170500.919,4109076.869,4100173.344,1018046.66,1364213.751,19670.65427,21725.85536,11457.86159,3258.550195,541708495186,660817907472,183795629244,14865409123,386934639.4,472012791.1,131282592.3,10618149.37,285.7142857,300.7142857,35.71428571,100
107829187.2,121221197.1,33721499.75,32003495.89,2689462.173,2637552.349,1364800.832,1770763.691,10402.21584,11029.00996,5819.89247,5675.96934,151488532128,170294685091,47419607715,45103279122,108206094.4,121639060.8,33871148.37,32216627.94,240.7142857,240.7142857,182.1428571,202.1428571
49448662.57,49073341.35,3142121.922,6414034.213,2833138.07,2724781.066,968641.3312,1482935.742,7179.664114,7153.612714,2186.143965,2857.319495,72166607515,71643844798,6690915607,11429984571,51547576.8,51174174.86,4779225.434,8164274.694,140,142.8571429,57.85714286,97.14285714
75463590.45,69803191.12,5691377.118,4622496.417,3589650.164,3573691.385,842319.3531,1320203.275,8783.430496,8455.701684,2705.397816,2508.334551,108008111778,100098447350,10246848282,8808439105,77148651.27,71498890.96,7319177.344,6291742.218,207.1428571,217.8571429,21.42857143,100.7142857
54759551.6,57968763.98,2683946.318,5715697.173,2611743.463,2566663.342,927474.0329,1480339.582,7510.875597,7724.999902,2066.038413,2700.501273,78978553117,83545872874,5975920614,10209789978,56413252.23,59675623.48,4268514.724,7292707.127,149.2857143,158.5714286,47.85714286,93.57142857
60056390,62483629.19,2981284.048,5630132.02,2627736.047,2527365.863,849371.1067,1321307.756,7827.056516,7979.531024,2152.158918,2684.368219,85767939176,89142081501,6484503213,10088165827,61262813.7,63672915.36,4631788.009,7205832.733,210,240,46.42857143,89.28571429
320300745.7,110504675.4,93940200.34,24051360.81,4469524.489,3574626.859,2188006.422,2125408.153,17934.88624,10587.21689,9769.126518,5059.932126,450324202387,156924825945,133610166085,35844078369,321660144.6,112089161.4,95435832.92,25602913.12,208.5714286,201.4285714,154.2857143,142.1428571
136928010,114345084.7,11528622.81,23393917.07,4633736.866,4010543.685,1825583.496,2201536.102,11750.02757,10747.72735,3624.152194,5000.832455,193288407104,161719100537,18388270776,35011655336,138063147.9,115513643.2,13134479.13,25008325.24,240,240,130.7142857,147.8571429
35133419.47,36455355.85,2460643.175,4003281.68,2456919.768,2411042.27,816108.8716,1181085.031,6115.300466,6228.15913,2009.969193,2378.269212,52355659708,54305952614,5655966619,7918630219,37396899.79,38789966.15,4039976.156,5656164.442,116.4285714,116.4285714,50,77.14285714
124893326.3,79544876.84,24001273.27,17310484.06,4488767.633,3634618.075,2027585.06,2303812.102,11234.8405,8996.281217,5058.65979,4349.80629,176710297423,113306306030,35826054417,26489140667,126221641,80933075.74,25590038.87,18920814.76,194.2857143,195.7142857,142.8571429,147.1428571
60451936.63,57757035.35,2021024.389,4133367.393,3574599.751,3597706.732,737337.6071,1299531.337,7886.151561,7714.555792,1908.616727,2402.243035,87067941012,83320119498,5099944936,8079080236,62191386.44,59514371.07,3642817.812,5770771.597,207.8571429,211.4285714,5.714285714,90.71428571
150723200.9,98359299.72,23303969.89,27245634.1,4446075.429,3480954.749,2051520.657,2335332.729,12344.65272,10025.61899,4954.03445,5368.149522,213346631170,140718250485,34359440268,40343841014,152390450.8,100513036.1,24542457.33,28817029.3,193.5714286,165.7142857,160,152.8571429
214882976.9,187460939.7,12697812.76,22047363.53,4298468.684,3616077.494,1880270.4,2141930.812,14683.0328,13718.44377,3782.791117,4854.841726,301828033164,263473979237,20033312084,32997283453,215591452.3,188195699.5,14309508.63,23569488.18,240.7142857,240,141.4285714,155
902451085.5,880651072.9,12293010.61,6830536.241,3394236.878,3412795.215,684381.9036,1126442.325,30068.13992,29706.21129,3715.480984,2921.956946,1265730253588,1235442584630,19326718520,11952965350,904093038.3,882458989,13804798.94,8537832.393,170.7142857,167.1428571,15,70.71428571
195474590.7,169669715.6,11734927.19,5491909.777,3412848.386,3408273.58,848417.249,1274418.179,14067.55935,13129.78694,3627.246961,2671.301415,277054716613,241347827101,18419688721,9990191749,197896226.2,172391305.1,13156920.52,7135851.25,174.2857143,173.5714286,32.85714286,87.14285714
82869345.87,96466279.57,4095376.142,5561987.199,2560130.118,2526940.152,994447.099,1445431.491,9234.315725,9952.526327,2362.934515,2684.078867,119381621682,138673892403,7816843329,10085991106,85272586.92,99052780.29,5583459.521,7204279.362,123.5714286,115,72.85714286,99.28571429
80541856.46,90706238.72,4343535.618,5073979.124,3632773.903,3680530.235,795411.6962,1411823.161,9039.481973,9585.927705,2440.107165,2576.3095,114397128076,128646013949,8335772168,9292318893,81712234.34,91890009.96,5954122.977,6637370.638,226.4285714,238.5714286,17.14285714,98.57142857
64164062.56,56617673.32,3032022.296,4341750.674,3507095.602,3435011.194,797855.0403,1326307.434,8103.819772,7627.425277,2149.437775,2453.731922,91940652853,81448662907,6468115849,8429120482,65671894.89,58177616.36,4620082.749,6020800.345,201.4285714,202.1428571,12.85714286,87.85714286
18412358.17,15944744.56,2328217.075,3425461.853,2032408.085,1995751.366,739027.1596,1025509.379,4459.926864,4176.576145,1986.17037,2247.253354,27847326684,24421303607,5522821833,7070206690,19890947.63,17443788.29,3944872.738,5050147.636,115,116.4285714,31.42857143,64.28571429
64477485.78,68740121.21,4585358.053,5871776.917,2281378.7,2164541.013,924160.4652,1203292.514,8101.906486,8362.156673,2487.8163,2730.679457,91897244201,97895929905,8664921921,10439254414,65640888.72,69925664.22,6189229.944,7456610.295,163.5714286,177.1428571,78.57142857,92.85714286
1046564291,1612483683,101856015,32211525.43,5909622.109,4884280.779,2567356.84,2723438.743,32375.83662,40177.0819,10152.03662,5828.894393,1467472715561,2259877074362,144289386432,47566413776,1048194797,1614197910,103063847.5,33976009.84,210,194.2857143,167.8571429,155
49625380.96,53113555.84,5667955.432,6532625.109,2634147.77,2565921.297,1072358.693,1502054.847,7158.779708,7399.084229,2699.809117,2861.193355,71747377671,76645026409,10204556974,11460998383,51248126.91,54746447.43,7288969.267,8186427.417,150,164.2857143,77.85714286,102.8571429
51890251.72,59323034.63,4620179.776,4559191.159,3068901.565,3028446.95,736552.5491,1129249.985,7309.406149,7808.375759,2478.094469,2488.558885,74798385546,85359024789,8597333073,8670095456,53427418.25,60970731.99,6140952.195,6192925.325,177.8571429,177.1428571,17.14285714,75
85578394.05,81069260.15,3584497.851,7107341.325,4148181.742,3979866.788,1035558.78,1631738.461,9332.4569,9084.308587,2298.923401,2977.527405,121932652505,115534527515,7399068327,12411937226,87094751.79,82524662.51,5285048.805,8865669.447,204.2857143,211.4285714,61.42857143,113.5714286
35675096.96,33827242.21,4066125.521,6441654.015,2811878.909,2684794.583,1047006.356,1592826.53,6105.725362,5958.603443,2373.218573,2834.930566,52191835069,49706936987,7885032950,11251563839,37279882.19,35504954.99,5632166.393,8036831.313,157.1428571,167.8571429,72.85714286,108.5714286
149786087.8,147513111.2,5183981.225,6388353.751,4116455.955,3973624.567,1047561.593,1571875.618,12298.24791,12205.72466,2610.185567,2826.156716,211745662170,208571600137,9538296171,11182026494,151246901.6,148979714.4,6813068.693,7987161.782,209.2857143,212.1428571,65,112.8571429
254771064,182922718,18436747.41,15971887.09,4444358.545,3675284.851,1893845.286,2159508.516,16020.63281,13596.04959,4480.198101,4201.471295,359324945901,258793590175,28101045039,24713305457,256660675.6,184852564.4,20072175.03,17652361.04,187.8571429,185,136.4285714,147.8571429
380763971.1,347785572.3,23141188.62,18827921.68,5157100.827,4169920.508,2253667.401,2490069.428,19555.16586,18694.54352,4973.241709,4527.360441,535366316635,489280340464,34626386337,28695789584,382404511.9,349485957.5,24733133.1,20496992.56,217.8571429,216.4285714,152.8571429,171.4285714
50152214.14,50415720,4114544.726,5627399.189,3390077.667,3201105.7,977501.8258,1423817.834,7195.445275,7208.634822,2413.189663,2703.150366,72484205788,72750182404,8152878091,10229830660,51774432.71,51964416,5823484.351,7307021.9,175,187.1428571,46.42857143,97.85714286
90003421.73,64849377.01,17721340.47,19201937.85,4839555.31,4192895.554,1889110.661,2401346.309,9561.158699,8137.971283,4405.231311,4559.229375,127982057922,92717207252,27168488065,29101201490,91415755.66,66226576.61,19406062.9,20786572.49,210,212.8571429,135,155
207298381.4,152928025.7,14256305.61,17377431.13,4662787.738,3907301.579,1848055.505,2291163.489,14456.02138,12438.3565,3977.739462,4358.27483,292567175955,216597797300,22151375720,26592383291,208976554.3,154712712.4,15822411.23,18994559.49,202.1428571,200.7142857,141.4285714,152.1428571
578617527.9,570756288.3,565729885.6,560168661,2515625.183,2356446.433,1853095.122,1971056.779,24077.61,23912.55796,23807.87669,23689.5049,811623824894,800534599246,793540989192,785669699498,579731303.5,571810428,566814992.3,561192642.5,165,177.8571429,121.4285714,122.1428571
131839558.5,105110839.7,15635711.27,16643548.28,3882350.599,3143098.566,1859333.703,2109368.177,11560.24714,10339.64953,4157.530131,4283.30074,187095039577,149671693386,24199079503,25685331317,133639314,106908352.4,17285056.79,18346665.23,172.1428571,169.2857143,137.8571429,151.4285714
12361272.46,12097508.73,4557247.293,4028845.736,1705236.253,1527997.908,850673.5693,1059491.831,3738.883807,3715.207745,2470.69628,2376.565464,19570952967,19323876026,8546076149,7907288763,13979252.12,13802768.59,6104340.106,5648063.402,106.4285714,97.85714286,64.28571429,79.28571429
29421268.2,31022211.1,4317845.517,4558545.144,2046410.992,1800152.698,945456.6911,1237797.572,5595.257307,5743.720591,2424.537768,2490.840646,43829666061,46186456716,8229736746,8686001976,31306904.33,32990326.23,5878383.39,6204287.126,109.2857143,99.28571429,54.28571429,89.28571429
137287832.7,71702810.3,24045521.11,22520620.63,4000650.403,3076428.713,1787309.573,2172093.522,11778.86771,8556.012156,5066.099661,4914.515001,194238414296,102487481616,35931512079,33813440775,138741724.5,73205344.01,25665365.77,24152457.7,195.7142857,177.1428571,127.8571429,143.5714286
74860062.59,71312820.76,6002766.282,8159804.956,3674139.391,3415917.713,1128873.356,1579780.853,8745.706017,8539.325759,2767.14765,3129.754684,107082323225,102088118184,10719948563,13713510136,76487373.73,72920084.42,7657106.117,9795364.383,182.1428571,184.2857143,82.85714286,125
23959189.17,12275557.13,7142230.007,10233068.64,2409260.513,1958866.1,1211798.384,1616929.749,5059.520659,3737.18106,2955.187387,3444.575369,35838249020,19553131184,12226385491,16611139264,25598749.3,13966522.27,8733132.494,11865099.47,135.7142857,117.8571429,86.42857143,111.4285714
20659588.31,15059850.86,5189330.225,8066093.933,2464908.905,2157470.389,1101540.424,1637358.19,4719.271502,4078.600258,2620.409067,3115.592912,31180132911,23288972093,9613161151,13589686872,22271523.51,16634980.07,6866543.679,9706919.194,134.2857143,132.8571429,77.14285714,109.2857143
113795559.9,68771475.9,15281538.22,14093958.78,4201858.689,3440006.512,1969823.324,2247979.423,10745.25733,8387.682513,4125.892563,3970.845846,161644777240,98494505106,23832185219,22074663421,115460555.2,70353217.93,17022989.44,15767616.73,190,192.1428571,138.5714286,147.1428571
98149845.52,74138120.97,14955383.74,17737537.96,4083896.017,3272913.927,1902018.547,2214678.262,9990.380578,8708.330215,4069.695721,4406.720111,139730785736,106169021182,23187392560,27186854989,99807704.1,75835015.13,16562423.26,19419182.13,187.1428571,170,140,145.7142857
29641164.19,19898611.18,8259281.347,13934327.57,2955743.626,2639954.776,1439335.826,2221753.775,5596.35572,4648.372622,3141.793808,3954.546419,43846876290,30250315240,13819215662,21893812333,31319197.35,21607368.03,9870868.33,15638437.38,158.5714286,159.2857143,106.4285714,141.4285714
23710125.97,15183948.9,5426108.837,8966642.951,2739220.593,2411606.457,1225704.023,1765205.546,5027.386003,4099.078774,2648.165229,3246.034993,35384454039,23523425518,9817890710,14751440444,25274610.03,16802446.8,7012779.079,10536743.17,143.5714286,146.4285714,87.14285714,125
81559351.01,77155121.92,6775356.683,9648469.194,4942306.202,4877487.558,1160084.378,1890985.604,9117.279927,8874.121962,2895.570774,3352.945287,116374710564,110250056835,11738062152,15739138934,83124793.26,78750040.6,8384330.108,11242242.1,234.2857143,240,78.57142857,137.8571429
54403835.47,40792888.71,7937985.792,6701514.585,3439391.334,3124983.09,1091758.988,1622255.071,7487.794939,6512.342806,3102.887226,2888.054861,78493902260,59374852348,13479072790,11677205230,56067073.04,42410608.82,9627909.136,8340860.879,185.7142857,185,69.28571429,108.5714286
58032300.59,38480851.87,9256608.126,11265680.17,4113754.475,3360383.448,1832088.785,2110559.835,7726.831618,6329.624465,3315.437479,3597.425504,83585497586,56089804222,15388975944,18118058363,59703926.85,40064145.87,10992125.67,12941470.26,175,174.2857143,132.8571429,143.5714286
39095202.6,38806415.74,4003913.84,4296177.679,2444343.948,2225597.317,791952.1713,1073355.8,6378.275679,6355.32226,2375.408183,2440.360623,56955360900,56546169431,7899589652,8337503956,40682400.64,40390121.02,5642564.037,5955359.968,155,150,28.57142857,76.42857143
167030429.6,141409260.2,11814692.73,23031628.63,4452596.427,3584191.623,1935876.357,2314287.273,12978.15546,11949.43088,3672.298499,4963.231951,235805526871,199904457730,18880086767,34487139960,168432519.2,142788898.4,13485776.26,24633671.4,193.5714286,192.1428571,132.1428571,150.7142857
56162779.34,49952769.02,5026785.805,6577802.771,3440370.659,3339554.397,1028753.246,1505968.644,7600.734635,7195.270067,2544.233757,2859.673671,80879633792,72480675871,9062375572,11448826906,57771166.99,51771911.34,6473125.408,8177733.504,173.5714286,173.5714286,71.42857143,112.8571429
90029793.11,57313392.87,13648443.9,28378316.96,4534786.303,3773814.236,1934584.727,2376635.218,9566.221776,7677.11238,3893.680232,5477.316695,128117638690,82513276291,21225044049,42001397444,91512599.06,58938054.49,15160745.75,30000998.17,200,186.4285714,141.4285714,150
18032175.66,16826240.32,7486628.756,7891298.96,2391612.135,2199694.011,1193651.26,1805440.786,4449.96059,4308.100577,3025.848476,3085.189668,27723008958,25983622810,12818062603,13325753402,19802149.26,18559730.58,9155759.002,9518395.287,128.5714286,128.5714286,77.14285714,116.4285714
20909025.14,14776760.97,6200694.963,9594269.51,2462260.469,2232733.044,1131416.849,1813843.61,4750.102958,4055.14741,2797.582849,3353.78068,31588869351,23021908723,10957057713,15746982790,22563478.11,16444220.52,7826469.795,11247844.85,139.2857143,136.4285714,79.28571429,117.8571429
89561459.39,56315640.96,15403080.86,16306996.25,4377093.208,3499009.546,1948881.682,2301394.418,9541.024896,7602.77049,4127.611211,4235.64165,127443618501,80922966783,23852044032,25116924260,91031156.07,57802119.13,17037174.31,17940660.19,200.7142857,187.1428571,141.4285714,147.1428571
10104746.33,9989090.228,5571918.585,4503539.656,1736795.017,1597335.022,946503.4034,1193364.82,3419.222753,3407.680141,2677.860122,2471.02856,16367517932,16257197522,10039308769,8548375002,11691084.24,11612283.94,7170934.835,6105982.145,103.5714286,100,65,84.28571429
116440562.4,94449126.33,17436791.85,24297172.41,4784583.903,4024720.564,2226721.788,2509448.786,10865.18963,9808.759822,4351.606648,5099.07253,165273284059,134696476951,26511072585,36400756936,118052345.8,96211769.25,18936480.42,26000540.67,198.5714286,193.5714286,155.7142857,159.2857143
95529857.77,65533964.88,17180732.71,16382984.72,4486215.41,3511111.879,2175793.246,2394083.658,9858.635604,8198.56682,4337.207922,4245.938782,136069774354,94103097065,26335921581,25239194598,97192695.97,67216497.9,18811372.56,18027996.14,192.1428571,183.5714286,145.7142857,150.7142857
35101228.66,21471256.02,10738923.23,13382751.13,2860944.708,2233573.806,1481616.486,1932360.535,6073.569026,4826.697346,3513.440701,3883.836052,51643537002,32615810182,17281971779,21117855473,36888240.72,23297007.27,12344265.56,15084182.48,140,127.8571429,101.4285714,122.1428571
34479373.38,29398541.43,5420360.774,6004136.907,3034765.402,2844817.199,1024199.145,1484454.709,6022.936678,5572.125461,2683.466312,2781.331327,50786072710,43468015020,10081388030,10830125535,36275766.22,31048582.16,7200991.45,7735803.953,170.7142857,175,47.85714286,101.4285714
46639659.53,34833588.55,12184294.36,6413168.114,3649192.549,3534118.108,1144611.16,1618648.379,6950.213714,6063.756322,3684.785468,2845.848551,67627658930,51476797019,19008701527,11338395562,48305470.66,36769140.73,13577643.95,8098853.973,177.8571429,176.4285714,86.42857143,113.5714286
37175538.8,31013288.57,6593592,6495202.807,3340116.593,3003892.699,1119394.414,1603700.126,6234.826648,5711.281389,2884.92719,2859.889599,54422288668,45666229143,11651926848,11450555922,38873063.33,32618735.1,8322804.891,8178968.516,172.8571429,170.7142857,62.85714286,124.2857143
67035525.28,57374135.87,7820095.171,9276658.516,4174948.051,3992479.487,1195995.478,1810803.779,8277.924967,7674.689113,3068.878305,3307.981043,95933658474,82461194170,13185219674,15319834011,68524041.77,58900852.98,9418014.053,10942738.58,202.8571429,204.2857143,89.28571429,127.1428571
28983489.69,26006359.51,7879690.071,6702293.621,2645630.353,2458407.576,1028636.135,1319611.543,5457.462631,5187.482926,2950.826998,2758.512598,41697457719,37673970749,12190331965,10653148453,29783898.37,26909979.11,8707379.975,7609391.752,185.7142857,185,107.8571429,122.1428571
60670790.58,59801465.81,12371979.63,7234741.685,4171941.089,4075482.251,1064924.985,1553364.225,7904.514879,7843.198899,3754.213161,2974.210748,87473897670,86122076546,19731763038,12384301405,62481355.48,61515768.96,14094116.46,8845929.575,193.5714286,195,92.85714286,122.8571429
63778334.76,63549601.67,8287044.347,6017638.936,4009800.915,3819191.589,1088086.7,1626614.174,8074.44769,8065.853641,3134.490454,2770.058156,91275387692,91081192950,13755042573,10742511059,65196705.49,65057994.96,9825030.409,7673222.185,205.7142857,203.5714286,56.42857143,126.4285714
39917505.14,41095087.55,9777426.697,5552486.432,3278290.341,2939672.803,983898.6896,1419797.273,6441.966581,6534.37143,3374.076356,2681.315788,58098506802,59777213973,15938147758,10065236099,41498933.43,42698009.98,11384391.26,7189454.356,165.7142857,165.7142857,61.42857143,101.4285714
65172584.21,58543623.12,5439517.227,5963167.198,3867207.843,3732037.667,990871.6119,1518158.155,8176.87494,7763.856837,2652.641183,2749.747992,93605797298,84388462186,9851107347,10585559631,66861283.78,60277472.99,7036505.248,7561114.022,197.1428571,200,52.85714286,105
33056446.63,29646953.25,4936116.011,4699594.18,3230981.647,3082978.181,909790.7023,1371299.978,5869.457351,5585.243572,2532.55253,2494.772989,48230741438,43672924068,8979351244,8713449176,34450529.6,31194945.76,6413822.317,6223892.268,196.4285714,195.7142857,42.14285714,102.8571429
104300078,72585710.92,15127483.17,21974848.17,5025671.981,4117223.908,2024549.871,2532759.792,10289.9777,8620.417562,4079.338467,4861.812423,148237097542,104036238517,23297403256,33092108050,105883641.1,74311598.94,16641002.33,23637220.04,202.8571429,193.5714286,142.1428571,157.8571429
11274854.29,10100401.15,4633656.607,4296565.115,1659514.702,1610298.597,754580.3393,1076918.939,3582.511011,3421.620145,2494.46582,2434.296531,17968139201,16390478181,8711303619,8296119444,12834385.14,11707484.42,6222359.728,5925799.603,109.2857143,104.2857143,37.14285714,80.71428571
47240863.19,44943877.7,4007221.399,5035617.633,3566169.251,3478540.638,898494.2803,1394615.37,6983.512777,6817.26754,2375.245262,2573.632138,68277230993,65065191392,7898506076,9273015334,48769450.71,46475136.71,5641790.054,6623582.381,194.2857143,198.5714286,35,98.57142857
157755935.1,108532483.4,15533309.89,17478334.69,5698959.812,4762991.542,2131589.95,2660239.031,12632.60657,10501.86198,4154.749464,4371.37541,223415848088,154404746982,24166720350,26752492161,159582748.6,110289105,17261943.11,19108922.97,202.8571429,200,136.4285714,163.5714286
207379141,167961409.8,17162430.32,16525335.56,4817229.799,4046616.665,2180452.662,2483330.076,14450.31629,13021.67288,4318.057355,4261.455664,292336297348,237389550605,26103867055,25424006121,208811641,169563964.7,18645619.32,18160004.37,210.7142857,193.5714286,150,156.4285714
11222033.63,7188001.708,4850003.88,4896403.315,1531392.811,1240145.403,929716.5595,1079532.74,3584.904822,2989.539925,2524.043955,2554.054608,17992159616,12512288545,8919117039,9132472919,12851542.58,8937348.961,6370797.885,6523194.942,97.85714286,80,72.85714286,80
316408838.1,252564195.9,21091882.24,23112360.26,6203914.084,5000481.113,2732445.117,3147764.329,17825.87258,15935.63758,4767.714232,4974.242572,444866426768,355522363216,31823538600,34640324834,317761733.4,253944545.2,22731099,24743089.17,227.1428571,221.4285714,164.2857143,188.5714286
21473937.25,14437927.34,6111395.005,8095992.985,2479040.817,2100980.266,1141514.836,1597153.277,4811.139536,4021.142591,2773.85407,3115.44499,32405889091,22637422831,10771972966,13588396480,23147063.64,16169587.74,7694266.404,9705997.485,133.5714286,126.4285714,85,106.4285714
40694282.77,41252054.94,9403940.481,5727399.794,3214026.379,3070416.797,913490.4567,1339511.653,6505.227544,6546.36141,3325.007075,2697.987059,59245179553,59996786801,15477940865,10190787837,42317985.4,42854847.71,11055672.05,7279134.169,189.2857143,189.2857143,32.14285714,102.8571429
34808724.43,33058875.53,4873189.231,4835220.931,2672345.315,2569211.163,796432.243,1148389.75,6023.877396,5885.17172,2531.618695,2523.528064,50801938441,48489344647,8972730506,8915471445,36287098.89,34635246.18,6409093.219,6368193.89,174.2857143,168.5714286,30.71428571,87.85714286
108646823,71651494.44,14768087.41,16412957.93,5228769.448,4410324.943,2103523.994,2401410.978,10506.95112,8573.548486,4040.556017,4247.61207,154554430705,102908027090,22856530100,25259091611,110396021.9,73505733.64,16326092.93,18042208.29,204.2857143,197.8571429,147.8571429,152.8571429
40527399.35,33877603.15,5648007.511,5030049.578,3493069.045,3283401.641,936138.7661,1393264.449,6493.904462,5957.147685,2705.233721,2584.138745,59039113218,49682651963,10245605276,9348882271,42170795.16,35487608.55,7318289.483,6677773.051,194.2857143,195,31.42857143,101.4285714
160851398.4,118296239.8,17489869.38,18972560.44,5755721.525,4721926.816,2418747.627,2765051.724,12746.48789,10950.53719,4375.390238,4533.471043,227462135109,167879970781,26801655627,28773303573,162472953.6,119914264.8,19144039.73,20552359.69,217.8571429,212.8571429,162.8571429,168.5714286
19396812.43,10679135.75,6997117.428,8351999.867,2347026.025,1848359.639,1354653.08,1631828.79,4579.575011,3507.673017,2930.254417,3152.668934,29361510196,17225277993,12020947325,13915049973,20972507.28,12303769.99,8586390.947,9939321.41,129.2857143,116.4285714,99.28571429,108.5714286
24094657.71,21076613.96,5365796.241,3294323.611,2119502.902,1941748.207,661364.4781,979489.5859,5068.932114,4766.403531,2638.172381,2222.373672,35971701892,31806043663,9743934919,6914522636,25694072.78,22718602.62,6959953.514,4938944.74,144.2857143,138.5714286,15,67.85714286
146974512.5,102869881.2,16252514.59,20036063.73,5967597.417,4970247.803,2302766.472,2724686.475,12195.092,10225.12298,4239.507062,4649.616822,208208376555,146374395897,25162788185,30266511225,148720269,104553139.9,17973420.13,21618936.59,215.7142857,217.8571429,148.5714286,160.7142857
15223957.03,9329610.73,6986612.813,7111372.747,1978494.346,1572740.758,1157990.599,1441048.666,4097.36206,3300.984233,2936.468309,2949.348496,23503726195,15255095666,12071984585,12178119167,16788375.85,10896496.9,8622846.132,8698656.548,126.4285714,108.5714286,92.14285714,108.5714286
110435554.7,69627693.02,16830109.52,18486431.11,4475194.995,3509683.247,2009073.158,2320717.401,10587.13767,8446.004378,4293.301048,4487.060775,156922477573,99868985940,25805407442,28187200160,112087484,71334989.96,18432433.89,20133714.4,197.8571429,188.5714286,145.7142857,147.8571429
6863789.758,6550667.512,4168482.277,4895070.212,1242234.299,1042655.103,710496.4567,830466.1345,2923.212928,2876.347805,2401.030467,2525.936933,11963243349,11582727371,8070926223,8932500343,8545173.82,8273376.693,5764947.302,6380357.388,80.71428571,57.85714286,28.57142857,52.14285714
114151180.5,72384107.04,14809416.97,18390715.97,3802626.695,2866982.627,1697567.81,1962820.079,10758.18077,8607.795318,4043.28369,4473.340337,162033834844,103731796323,22887400201,28015083273,115738453.5,74094140.23,16348143,20010773.77,187.8571429,167.1428571,132.8571429,144.2857143
19672605.75,11659653.41,6290398.828,8423725.124,2433701.796,1931852.127,1291363.557,1678390.068,4624.197712,3650.574294,2823.191672,3181.300039,29936486265,18657369746,11158575703,14168937911,21383204.48,13326692.68,7970411.216,10120669.94,134.2857143,117.8571429,92.14285714,114.2857143
20629454.31,10892548.36,5698016.951,8329303.33,2171918.183,1740373.588,1132570.572,1567851.832,4718.512087,3529.809503,2721.073845,3161.109562,31170098841,17443377180,10365940018,13989659124,22264356.32,12459555.13,7404242.87,9992613.66,126.4285714,112.1428571,82.85714286,109.2857143
81073430.01,71161754.76,13446872.74,16182031.12,4681859.611,3800459.658,2088939.7,2407813.997,9086.530469,8521.083964,3889.922575,4214.005518,115591050356,101652420683,21184096701,24860979508,82565035.97,72608871.92,15131497.64,17757842.51,209.2857143,207.8571429,151.4285714,160.7142857
16618693.89,12024475,4096173.25,5096232.39,1941637.709,1534278.564,946490.4588,1317772.322,4274.583591,3705.56441,2383.720695,2591.296072,25580890830,19223690632,7954974093,9400741465,18272064.88,13731207.59,5682124.352,6714815.332,116.4285714,102.8571429,66.42857143,98.57142857
598984797.6,603252842.3,548788721.7,570052751.6,2790131.092,2322924.412,2090818.237,2352395.205,24495.46056,24584.66338,23447.15586,23897.59847,840038623206,846167942947,769676765007,799533297702,600027588,604405673.5,549769117.9,571095212.6,167.8571429,148.5714286,127.8571429,142.1428571
14421818.87,10345861.74,4170240.594,6505543.586,1615548.62,1320207.08,898955.5044,1113604.471,4026.110273,3481.808585,2412.498233,2841.085124,22693389501,16972187434,8148206816,11300470551,16209563.93,12122991.02,5820147.725,8071764.679,101.4285714,85,63.57142857,85
37470657.66,31481163.44,5517523.769,5156610.457,3479233.165,3306612.848,1038572.69,1507077.546,6249.242581,5750.314907,2674.360562,2602.542043,54674245975,46292570145,10013086183,9482515117,39053032.84,33066121.53,7152204.417,6773225.084,177.1428571,177.8571429,64.28571429,111.4285714
78698393.7,43220087.1,17205047.29,13496353.45,4393907.376,3409196.951,1959733.016,2165431.713,8963.859666,6699.858503,4340.39852,3884.449112,112491092162,62843345544,26374683040,21124522867,80350780.12,44888103.96,18839059.31,15088944.9,185,167.1428571,140,146.4285714
72710198.92,25506653.87,23006590.29,3665520.828,2733712.126,2415410.57,934167.8083,1192756.905,8616.070932,5209.888413,4955.128218,2306.591372,103931349616,38000112184,34374613918,7448509258,74236678.3,27142937.27,24553295.66,5320363.756,157.8571429,156.4285714,43.57142857,86.42857143
735240068.8,580716812.2,42329831.46,19121859.15,4242941.478,3158387.231,2295746.315,2332483.231,27148.29027,24130.54995,6605.343457,4599.139289,1031841530727,815196817472,61082787064,29612915079,737029664.8,582283441.1,43630562.19,21152082.2,177.1428571,171.4285714,155,137.8571429
91558188.44,54288244.13,25197583.68,19467040.35,4742687.426,3587726.091,2124545.099,2427318.348,9647.000104,7471.327893,5178.608171,4593.787392,130290455398,78149036668,37545175623,29544035647,93064611,55820740.48,26817982.59,21102882.6,194.2857143,174.2857143,153.5714286,155
924812011.9,996912304.3,11977613.64,10064749.46,2051744.741,1847141.393,705067.2464,1008999.18,30419.35359,31582.38729,3679.152927,3436.441577,1295471901933,1396426062086,18950632763,16532783002,925337072.8,997447187.2,13536166.26,11809130.72,112.8571429,102.1428571,31.42857143,77.85714286
24745989.43,9120220.82,12282428.57,11741357.15,2028717.188,1446701.367,1280878.216,1552881.759,5140.367347,3291.126123,3726.863771,3658.49892,36992727054,15164115618,19445318993,18738460088,26423376.47,10831511.16,13889513.57,13384614.35,112.8571429,97.85714286,97.85714286,107.1428571
1087872182,992260894.3,45129553.77,821840453.7,6391420.806,5065640.997,2668430.833,3309012.751,33029.83747,31544.54122,6855.495828,28670.95546,1527358228177,1393081313143,65796952263,1150833161463,1090970163,995058080.8,46997823.04,822023686.8,196.4285714,172.8571429,167.8571429,220.7142857
18422513.58,13098501.54,5647193.29,10193240.33,1941053.826,1623262.955,1145582.765,1649690.813,4473.950481,3839.13332,2690.366381,3449.13134,28022726069,20634522506,10133299768,16655109803,20016232.91,14738944.65,7238071.263,11896507,118.5714286,110,87.14285714,112.8571429
95971199.75,63430986.56,13178432.46,20876936.73,4130251.995,3795249.775,1163555.684,1847191.971,9888.137012,8073.704342,3857.176692,4729.201947,136885355004,91258582533,20828936848,31311491483,97775253.57,65184701.81,14877812.03,22365351.06,192.8571429,195,77.85714286,135.7142857
106982454,66510850.87,14322206.92,29463476.79,5789542.351,4679891.3,2328141.528,2778883.809,10418.29844,8247.974377,4002.525177,5601.829004,151957319482,95240713843,22428290904,43932683459,108540942.5,68029081.32,16020207.79,31380488.18,211.4285714,206.4285714,147.8571429,160
53405233.82,25372317.38,40475765.35,6812068.318,3256406.819,2967434.887,1155580.426,1521489.796,7409.235791,5208.767032,6469.075775,2917.221609,76855485005,37983755584,58588517942,11914254679,54896775,27131253.99,41848941.39,8510181.914,177.8571429,170,92.14285714,113.5714286
55413500.93,43656680.51,30264127.13,9313523.818,3452971.367,3094388.896,1112987.188,1577402.71,7557.948434,6736.19684,5645.882503,3294.998248,79971618344,63526887018,44626384929,15199818833,57122584.53,45376347.87,31875989.24,10857013.45,172.8571429,170.7142857,75.71428571,112.8571429
210109530.4,41453379.85,150665117.1,8156924.87,3702456.436,3347743.044,1203976.353,1549939.012,14536.74809,6560.854544,12326.11214,3124.839609,295843863184,60262737280,212706256689,13670471616,211317045.1,43044812.34,151933040.5,9764622.583,202.8571429,197.8571429,88.57142857,115.7142857
17401460.31,9511877.212,5678054.59,9174917.565,1989312.087,1634399.647,1057140.076,1527663.216,4359.174989,3330.309071,2708.933575,3284.404591,26603369215,15527341913,10273649561,15102238923,19002406.58,11090958.51,7338321.115,10787313.52,123.5714286,113.5714286,79.28571429,106.4285714
365389128.1,24354199.15,330697490.9,6733548.411,3057723.16,2496828.759,1185021.685,1348611.655,19165.97147,5103.566872,18237.13605,2893.14064,514268247224,36464952745,465630383711,11718367868,367334462.3,26046394.82,332593131.2,8370262.763,150,152.1428571,45,99.28571429
128467515.2,50732641.98,65311063.09,9292305.432,3836941.38,3556341.62,1277422.067,1679473.934,11410.27913,7239.614619,8185.614169,3316.242867,182272257781,73376827766,93805991053,15396453455,130194469.8,52412019.83,67004279.32,10997466.75,187.8571429,194.2857143,83.57142857,122.1428571
2310454582,2248196822,25859022.96,28247931.33,6750074.574,5573064.724,2531010.835,3067707.842,48069.23846,47416.85364,5249.424676,5463.635762,3234912360722,3147701212920,38579043194,41791842039,2310651686,2248358009,27556459.42,29851315.74,226.4285714,218.5714286,169.2857143,192.8571429
13239167,5767175.945,8309747.949,6691775.197,1706798.332,1280978.362,1097519.293,1380524.361,3858.986582,2725.185634,3152.787583,2890.953318,20848488418,10397291432,13916097358,11700655521,14891777.44,7426636.737,9940069.541,8357611.087,110.7142857,90,83.57142857,100.7142857
117130882.4,69431155.98,18046229.06,22259007.52,6001401.182,4966692.056,2450130.366,2968775.097,10892.44384,8427.16184,4431.04539,4885.418196,166103465953,99423879351,27487828544,33414235332,118645332.8,71017056.68,19634163.25,23867310.95,232.8571429,224.2857143,170,177.1428571
19713038.15,10634588.9,6009301.645,10252725.29,2287531.167,1783887.265,1208000.207,1803549.529,4621.775812,3495.69715,2777.498078,3456.144664,29905136324,17107857992,10800293801,16722910315,21360811.66,12219898.57,7714495.572,11944935.94,127.8571429,117.8571429,83.57142857,123.5714286
45165456.22,22479905.76,10128881.14,18451583.25,3013636.639,2354361.177,1535167.042,2259085.903,6872.457522,4929.606378,3464.416867,4500.960862,66122941351,34021426662,16803057922,28362108160,47230672.39,24301019.04,12002184.23,20258648.69,135,131.4285714,103.5714286,130.7142857
37940927.9,18180734.55,9242157.593,17887576.85,2857928.102,2335005.112,1521396.354,2183408.896,6286.875792,4450.88278,3292.56938,4409.708426,55334730109,27734500524,15177418373,27223739761,39524807.22,19810357.52,10841013.12,19445528.4,139.2857143,137.1428571,104.2857143,133.5714286
46236622.66,35794641.53,8014069.797,7528099.525,3728002.568,3499686.228,961916.1201,1682264.494,6918.02382,6116.507635,3107.753415,3028.1653,67002674999,52376331901,13521383807,12837699118,47859053.57,37411665.64,9658131.291,9169785.084,191.4285714,193.5714286,48.57142857,110.7142857
105893904.9,55672526.94,21207885.63,18140037.59,5156758.186,4184024.787,2384789.576,2654117.691,10358.99833,7565.23652,4766.230364,4442.554705,150232384855,80125925041,31803732638,27630809233,107308846.3,57232803.6,22716951.88,19736292.31,210,197.8571429,161.4285714,169.2857143
16780381.89,9193388.257,5121705.679,7448034.723,2155185.837,1693021.467,1222190.852,1575154.072,4291.08688,3292.580976,2597.298526,3010.298058,25778797261,15177525280,9444343483,12686652158,18413426.61,10841089.49,6745959.631,9061894.398,127.8571429,106.4285714,93.57142857,110
41694120.64,28914408.05,11543652.73,5955102.513,3261057.508,3007625.658,977873.3609,1514890.424,6586.654157,5537.760876,3622.577024,2756.062546,60737618186,42933513720,18372290011,10634233062,43384012.99,30666795.51,13123064.29,7595880.758,168.5714286,166.4285714,57.14285714,112.1428571
38134913.36,28549034.18,5727911.959,8768693.753,1913359.328,1507354.382,1030276.179,1401793.67,6303.928723,5495.312019,2706.509545,3227.723513,55635324283,42277835855,10255271483,14585478709,39739517.35,30198454.18,7325193.916,10418199.08,110,92.85714286,76.42857143,101.4285714
729888600.3,701505231.1,662244501,688393576.8,5628968.045,4488125.666,2922413.759,3095936.915,27009.41548,26479.57321,25727.34605,26230.41094,1021311934426,981634916009,926654868388,963248240987,729508524.6,701167797.1,661896334.6,688034457.8,470,467.8571429,458.5714286,467.8571429
16704201.38,10872916.93,3738104.16,7063073.333,2250152.262,1955208.785,1167571.443,1632676.338,4287.675368,3546.342842,2313.768011,2947.019332,25737824091,17607166575,7494931371,12158892118,18384160.07,12576547.55,5353522.408,8684922.941,130.7142857,124.2857143,86.42857143,112.1428571
96561221.51,51501964.09,18136585.43,21767709.56,4923970.597,3959215.006,2067995.256,2605478.961,9903.064549,7284.949839,4442.249932,4837.632744,137298962445,74298691816,27627018240,32763766790,98070687.46,53070494.15,19733584.46,23402690.56,211.4285714,203.5714286,146.4285714,157.8571429
31119068.13,17691485.91,8966662.424,4291313.493,2521059.082,2310632.827,751925.4666,1178970.267,5722.870792,4397.925953,3253.941826,2431.16003,45851750137,27078453768,14823392373,8274754726,32751250.1,19341752.69,10588137.41,5910539.09,155.7142857,155,12.85714286,89.28571429
163020156.5,73722598.24,34936527.68,29804355.65,6187918.684,4685923.676,2825062.192,3069446.771,12826.05204,8679.630022,6040.883093,5603.751764,230310655382,105470368237,51089175963,43962847364,164507611,75335977.31,36492268.55,31402033.83,226.4285714,208.5714286,165,177.1428571
14210282.13,9052234.517,3846974.46,7831902.617,2076823.156,1812497.876,1055913.46,1690069.635,3980.340308,3270.631876,2339.27084,3085.031911,22180352560,14975846012,7661063289,13324390649,15843108.97,10697032.87,5472188.063,9517421.892,126.4285714,122.8571429,75,113.5714286
65972156.25,32705474.68,16433980.74,15641257.36,4525467.941,3476522.149,1956110.481,2660828.088,8218.564227,5856.747231,4249.825242,4154.95879,94562717144,48022083379,25285420424,24169155565,67544797.96,34301488.13,18061014.59,17263682.55,198.5714286,184.2857143,143.5714286,168.5714286
87087091.33,66610451.88,9907536.713,12240774.76,5441445.236,4950354.4,1527565.071,2208184.036,9416.928472,8255.979755,3405.055318,3721.691968,124149958573,95425682402,16232162410,19391387542,88678541.84,68161201.72,11594401.72,13850991.1,225.7142857,230,122.8571429,147.8571429
41704865.44,38379033.7,2212071.966,6465944.244,3610848.163,3600104.512,890430.0766,1652026.445,6574.957395,6322.563963,1943.966848,2842.385462,60522090647,55964741094,5290609946,11310817164,43230064.75,39974815.07,3779007.104,8079155.117,191.4285714,196.4285714,27.14285714,115
127439110.4,81376998.16,13941986.13,19835082.06,6004024.026,4910407.721,2345976.76,3099957.125,11365.38259,9116.665979,3948.744891,4632.834477,180840689832,116359038006,21829620699,30048417404,129171921.3,83113598.58,15592586.21,21463155.29,220.7142857,214.2857143,155.7142857,189.2857143
129305759.6,67558131.26,22145001.1,22224556.5,5416191.551,4435542.989,2393829.649,2722840.308,11436.71217,8314.279566,4871.491078,4886.25741,183117739467,96778142582,33223995449,33425716069,130798385.3,69127244.7,23731425.32,23875511.48,218.5714286,209.2857143,154.2857143,173.5714286
22735237.1,11137717,6037023.163,10168979.08,2570606.144,1993855.541,1358224.773,1832174.418,4931.42453,3566.169076,2771.793697,3431.572969,34046527052,17804586633,10755976421,16485970261,24318947.89,12717561.88,7682840.301,11775693.04,135,122.1428571,95,117.8571429
42057347.07,25586559.85,11241973.47,4389823.063,2981387.658,2833730.625,742333.1878,1252600.446,6603.541165,5214.719456,3581.537015,2453.248115,61049458290,38070618608,17958370346,8425796839,43606755.92,27193299.01,12827407.39,6018426.313,170,168.5714286,10.71428571,88.57142857
107841368.5,65148253.81,15345564.48,21459541.92,5887681.146,4666269.867,2383557.417,3031549.04,10457.16167,8167.998643,4116.178469,4805.455746,153093122415,93402682555,23720095266,32329366900,109352230.3,66716201.82,16942925.19,23092404.93,222.1428571,209.2857143,162.8571429,185.7142857
53230789.12,49790382.1,3021739.855,8021974.82,3686913.086,3562861.686,905456.3236,1638898.21,7397.418935,7165.132155,2145.304887,3109.94018,76610529669,71874766323,6443266282,13540419096,54721806.91,51339118.8,4602333.058,9671727.925,194.2857143,195.7142857,49.28571429,124.2857143
21845521.01,11456294.66,5499707.281,10268317.64,2484466.817,1959764.167,1341580.414,1828007.999,4841.087606,3614.607309,2668.517332,3449.627135,32810580892,18291540401,9969378655,16659898323,23436129.21,13065386,7120984.754,11899927.37,130,122.8571429,95,122.1428571
135881369.7,75898418.69,18042427.38,27204053.68,5656420.663,4461080.559,2329444.8,2901000.724,11720.55139,8801.822386,4429.835671,5366.146339,192319854737,108460908253,27472821702,40313737137,137371324.8,77472077.32,19623444.07,28795526.53,215,201.4285714,155.7142857,171.4285714
29086230.27,26577276.65,5409691.795,4435226.147,2940397.585,2770026.386,776802.7096,1295921.443,5544.044286,5308.064995,2664.222119,2469.231067,43030997863,39445775586,9937311302,8535942888,30736427.05,28175553.99,7098079.501,6097102.063,164.2857143,166.4285714,10.71428571,86.42857143
78672326.53,66522530.01,7241452.475,12658726.37,4322557.905,4084789.186,1199614.383,1972677.585,8967.709335,8262.757286,2980.107856,3788.749223,112587735013,95582421155,12433459963,20096468947,80419810.72,68273157.97,8881042.831,14354620.68,205,208.5714286,110,147.8571429
29644044.85,21822343.33,4060300.4,5106143.625,2798732.223,2541365.447,849584.3881,1290464.143,5582.855069,4835.519478,2380.09995,2586.564121,43635579009,32735148074,7930826083,9366439532,31168270.72,23382248.62,5664875.773,6690313.951,151.4285714,148.5714286,34.28571429,89.28571429
76020769.5,49429757.06,10219216.98,14032354.54,4671669.447,3771402.341,2132221.738,2594543.715,8805.769064,7144.126844,3432.675581,3965.952523,108558196341,71453967713,16496566303,22020291176,77541568.81,51038548.37,11783261.65,15728779.41,213.5714286,185,152.1428571,165.7142857
5865145.651,3768448.563,2237992.434,2906406.848,1215408.755,1028420.119,720054.361,932803.272,2746.496921,2325.713387,1978.098723,2138.792983,10560543475,7572519860,5478024381,6404209595,7543245.339,5408942.757,3912874.558,4574435.425,85.71428571,67.14285714,33.57142857,57.14285714
8291696.825,6549625.873,2461138.567,4739131.262,1535266.377,1521301.024,765987.6241,1217428.07,3162.022101,2868.691572,2030.637184,2531.861885,13997737278,11521147867,5772882323,8974454449,9998383.77,8229391.333,4123487.374,6410324.607,98.57142857,104.2857143,43.57142857,90.71428571
595455866.4,583576570.4,15516516.41,19086392.65,5944556.611,4953814.675,2158981.416,2928528.338,24431.54366,24189.22428,4130.849088,4549.431093,835660455748,819165999936,23889479860,28976252580,596900325.5,585118571.4,17063914.19,20697323.27,215,210.7142857,155.7142857,173.5714286
201201893.4,128219141.7,17175885.41,16205508.82,6058399.213,4879088.53,2325737.649,2905141.607,14232.82196,11390.29748,4325.297354,4223.283188,283602509351,181634427431,26191476080,24970569245,202573221,129738876.7,18708197.2,17836120.89,220,210.7142857,157.8571429,174.2857143
33152447,24667207.39,4934576.317,6061546.602,2775206.039,2565726.237,827966.7391,1388012.394,5892.129178,5122.495358,2562.361307,2773.526439,48604060752,36735942169,9191973658,10769428471,34717186.25,26239958.69,6565695.47,7692448.908,169.2857143,173.5714286,32.85714286,103.5714286
32182649.77,22457267.03,6431065.627,4570325.031,2817601.782,2656342.844,793173.1507,1295406.667,5808.903826,4908.32694,2828.213166,2489.775146,47240709119,33728342689,11198305599,8678572385,33743363.66,24091673.35,7998789.714,6198980.275,170,169.2857143,19.28571429,91.42857143
18800056.48,8817746.488,5054423.071,10085129.44,2214781.718,1692626.189,1220108.066,1684970.957,4509.321382,3222.133039,2581.589442,3408.980754,28467571059,14534997850,9330445665,16269609698,20333979.33,10382141.32,6664604.046,11621149.78,137.1428571,114.2857143,90.71428571,124.2857143
17745613.3,8028346.869,4740603.511,8027161.981,1827253.187,1393492.478,1077432.886,1384428.336,4398.800703,3110.788945,2517.46872,3103.670345,27089226672,13547811007,8872708257,13485877455,19349447.62,9677007.862,6337648.755,9632769.611,115.7142857,102.8571429,82.14285714,102.8571429
8645467.774,4235566.857,2754800.656,4490146.449,1323423.9,1002098.883,819773.3674,1035889.291,3202.564368,2426.49053,2086.49102,2469.69954,14358985948,8242998808,6094822689,8539182145,10256418.53,5887856.291,4353444.778,6099415.818,97.85714286,67.14285714,57.14285714,84.28571429
141643981.2,137112736,128261932.7,133570649.4,2204580.534,1866772.794,1552048.029,1849068.879,11981.00686,11793.08455,11408.81993,11641.10843,200962335376,194707580487,182225640916,189721567781,143544525.3,139076843.2,130161172.1,135515405.6,122.1428571,116.4285714,113.5714286,117.8571429
96094466.6,57035816.24,15408623.09,21203127.67,5183540.524,4201039.201,2097253.939,2547780.228,9888.674238,7665.275913,4127.121731,4785.024143,136900229469,82259036761,23846387294,32055038474,97785878.19,58756454.83,17033133.78,22896456.05,191.4285714,184.2857143,142.8571429,154.2857143
54585182,47894584.71,8116873.543,5829213.565,3948213.826,3909898.963,808557.6625,1459982.473,7473.73613,7037.632169,3065.318685,2720.178616,78199424434,69339573160,13154650099,10359120382,55856731.74,49528266.54,9396178.642,7399371.701,212.1428571,203.5714286,40,104.2857143
108851718.1,55579923.55,20357728.21,23110825.41,5298578.565,4201692.694,2197358.864,2767215.375,10504.09272,7557.323081,4687.160519,4970.083072,154470349467,79958385001,30757263222,34582416046,110335963.9,57113132.14,21969473.73,24701725.75,219.2857143,202.8571429,145,165.7142857
114965698.9,68661665.06,16494176.32,21482564.94,6189217.487,5092474.431,2341602.448,2968472.674,10802.03053,8386.433613,4266.404257,4812.927762,163357408961,98465176251,25483087395,32429983093,116683863.5,70332268.75,18202205.28,23164273.64,216.4285714,215.7142857,157.1428571,182.1428571
10138129.3,5407592.029,3842338.967,5240676.717,1549456.175,1219926.667,938410.9847,1223785.189,3426.00034,2655.269216,2332.162854,2627.360146,16432469662,9870636451,7614577009,9664229871,11737478.33,7050454.608,5438983.578,6903021.337,102.1428571,83.57142857,72.85714286,92.85714286
78957853.64,42896548.52,14462706.05,18072107.99,4741788.548,3830976.776,1986842.646,2559830.439,8971.640716,6666.733134,4012.547225,4438.137977,112686471998,62223462943,22540749327,27575896187,80490337.14,44445330.67,16100535.23,19697068.71,201.4285714,195,145,162.8571429
78300928.43,49555305.94,12398949.02,15050191.23,5245404.132,4365875.421,2085766.34,2653548.098,8927.47306,7146.395057,3732.142529,4076.405607,111579685342,71499347244,19500442996,23263915742,79699775.24,51070962.32,13928887.85,16617082.67,217.1428571,206.4285714,150,162.8571429
71526900.97,46498266.88,12846553.7,10370458.19,4311872.759,3892581.145,1296626.784,1824628.46,8544.334425,6929.521108,3801.375764,3459.166812,102207911076,67225567894,20230640778,16752169042,73005650.77,48018262.78,14450457.7,11965835.03,200.7142857,202.1428571,112.1428571,145.7142857
19607293.76,8470710.509,5546522.421,9049332.855,2150169.666,1517719.943,1253791.986,1611968.387,4607.342862,3176.358678,2681.67371,3261.236363,29718651542,14124956229,10067923443,14889927663,21227608.24,10089254.45,7191373.888,10635662.62,116.4285714,97.85714286,87.14285714,110
15007753.81,7826697.622,3945279.792,8721996.556,2000319.255,1631718.166,1018747.977,1564950.257,4077.087798,3075.780102,2359.506923,3217.040471,23271702876,13244592533,7794182087,14489089150,16622644.91,9460423.238,5567272.919,10349349.39,123.5714286,108.5714286,71.42857143,106.4285714
18612996.39,10788227.17,4488670.769,9602416.728,2324886.28,1936351.455,1217395.083,1800672.841,4508.054568,3536.971128,2473.192527,3357.056058,28451578385,17514230663,8563353787,15777755528,20322555.99,12510164.76,6116681.277,11269825.38,126.4285714,123.5714286,85.71428571,123.5714286
37379009.82,27951108.27,5465000.383,6056888.79,3357964.33,3057388.213,1013174.069,1566151.819,6236.330623,5431.180463,2659.251967,2774.536689,54448547497,41296809705,9900269432,10777275374,38891819.64,29497721.22,7071621.023,7698053.838,185.7142857,184.2857143,65.71428571,107.1428571
19986077.15,11886276.3,4139951.989,10943067.5,2481234.479,2080094.717,1243455.15,1962759.076,4654.231537,3679.947227,2408.343883,3545.655036,30326619675,18958816230,8120168362,17600337491,21661871.2,13542011.59,5800120.259,12571669.64,132.8571429,132.1428571,86.42857143,127.1428571
19955778.28,11189243.86,4267096.15,9960953.945,2205098.226,1841372.327,1107304.038,1691966.065,4651.621099,3586.518544,2432.434227,3406.768841,30292610392,18008361371,8283430775,16248503509,21637578.85,12863115.27,5916736.268,11606073.94,122.1428571,114.2857143,79.28571429,105
38602976.67,25925725.26,7985850.427,4701011.789,3156246.398,2993465.222,746325.0823,1314050.52,6345.770386,5248.653329,3109.899885,2514.227589,56376322507,38567706479,13540068214,8849876515,40268801.79,27548361.77,9671477.295,6321340.368,170,168.5714286,10.71428571,95
19847423.6,7741829.244,5687369.279,9917221.97,1797823.407,1341743.552,1082581.507,1413610.465,4625.36418,3055.275959,2698.569356,3392.248891,29951591311,13068595663,10195187194,16110293549,21393993.79,9334711.188,7282276.567,11507352.54,110.7142857,92.85714286,85.71428571,106.4285714
73171780.7,35942626.25,15950508.99,14169012.48,4596940.567,3709532.059,2096811.908,2468623.251,8653.015266,6132.752678,4199.620873,3972.230116,104824542465,52654917581,24691541667,22090056927,74874673.19,37610655.41,17636815.48,15778612.09,196.4285714,193.5714286,145,163.5714286
112961671.8,69954242.14,19589665.95,22620315.23,5685625.014,4566280.572,2477251.629,2788900.867,10707.94687,8461.179051,4615.832222,4929.948201,160524176598,100228171318,29828269941,34026144966,114660126.1,71591550.94,21305907.1,24304389.26,211.4285714,207.1428571,157.8571429,163.5714286
17405253.59,8263260.319,5113832.553,16296719.57,1906777.273,1515687.18,1082770.349,1518592.005,4357.996067,3151.831032,2583.171372,4263.548779,26588981612,13907654397,9341884069,25448987472,18992129.72,9934038.855,6672774.335,18177848.19,112.8571429,103.5714286,84.28571429,102.1428571
96185503.53,61046253.81,15203482.25,19529994.22,5748846.179,4494366.648,2645478.08,3006524.851,9882.476584,7915.573099,4089.286573,4591.295044,136728680813,87718816491,23411170542,29511986258,97663343.44,62656297.49,16722264.67,21079990.18,225,207.1428571,175,182.8571429
35298902.44,25984144.91,8433219.102,4681470.186,3118456.417,2919977.697,804554.2896,1295870.966,6067.250878,5256.671084,3152.20856,2504.294359,51536146500,38685627236,13910986332,8780086330,36811533.21,27632590.88,9936418.808,6271490.235,170,165,21.42857143,90.71428571
59146623.93,51875892.89,3898256.465,6645899.742,3969163.418,3862361.298,968035.4237,1513524.121,7802.427161,7312.511355,2382.067232,2877.877772,85229017452,74861951236,7943942019,11595052659,60877869.61,53472822.31,5674244.299,8282180.47,193.5714286,197.1428571,35,115.7142857
19912418.15,9017345.292,5573477.943,10692100.91,2308709.229,1792566.043,1262193.98,1837923.862,4641.615556,3264.808063,2684.437218,3508.464766,30162432961,14922560367,10088684452,17233055017,21544594.97,10658971.69,7206203.18,12309325.01,134.2857143,116.4285714,90,122.8571429
30666001.56,21734663.86,5122967.903,5610467.514,3027280.11,2733272.426,930904.421,1458742.671,5689.312891,4835.036045,2611.951305,2693.229722,45315593636,32728602980,9551205469,10154880871,32368281.17,23377573.56,6822289.62,7253486.337,165.7142857,160,29.28571429,104.2857143
36079204.73,29363419.67,3879290.217,5482938.384,3335371.779,3177424.117,928178.6897,1479070.048,6143.400733,5567.618181,2354.771576,2657.519853,52837921596,43397721099,7762928846,9887376477,37741372.57,30998372.21,5544949.176,7062411.769,167.1428571,167.1428571,37.85714286,117.8571429
16493093.46,7677652.695,5059439.751,8622358.05,2110709.805,1538807.973,1222168.648,1617967.559,4258.866374,3051.149993,2591.489046,3202.758609,25393119913,13033322788,9402141668,14360727787,18137942.8,9309516.277,6715815.477,10257662.7,115.7142857,102.1428571,90,107.8571429
97729053.32,54304238.87,15727310.49,16968939.94,5708582.891,4657111.028,2236504.694,2684804.067,9968.32986,7482.195228,4164.650233,4316.558573,139114640289,78376543592,24282036183,26085749074,99367600.21,55983245.42,17344311.56,18632677.91,212.1428571,203.5714286,159.2857143,170
44578596.67,28653993.01,14365298.6,5095493.971,2903887.965,2721781.019,736528.6344,1192183.978,6801.536562,5515.377496,3990.704585,2590.133107,64765259442,42587144494,22296012321,9392305320,46260899.6,30419388.92,15925723.09,6708789.515,171.4285714,171.4285714,14.28571429,87.85714286
78865427.76,49609887.8,12219028.75,16634932.64,5373507.805,4458289.259,2223212.917,2760554.354,8964.776348,7154.944028,3713.168841,4277.10765,112514100960,71670513669,19302671981,25611109784,80367214.97,51193224.05,13787622.84,18293649.85,212.8571429,207.8571429,147.1428571,165
746959689.7,702318479.4,708735016.2,682348099.5,4296450.235,3909367.136,2116641.838,2455759.117,27322.94432,26494.22357,26615.07398,26115.36337,1045160600886,982721435343,991707028227,954817085841,746543286.3,701943882.4,708362163,682012204.2,472.1428571,466.4285714,464.2857143,457.8571429
10819587.4,6086153.596,3713386.877,5999514.199,1631288.447,1227392.716,1041493.176,1349074.917,3528.130569,2780.60801,2309.586005,2766.830867,17426787433,10824493266,7467862523,10717494267,12447705.31,7731780.904,5334187.517,7655353.048,103.5714286,89.28571429,80,97.85714286
18827553.06,9870530.999,5381139.728,9378464.084,2253446.414,1804815.561,1289494.347,1838942.776,4519.62356,3388.509125,2647.90397,3314.62219,28597795980,16074791730,9815953611,15381408364,20426997.13,11481994.09,7011395.437,10986720.26,122.1428571,115.7142857,95,117.1428571
108503858.8,66941089.68,16162842.85,31847518.8,5938222.497,4849489.763,2521196.067,3099484.202,10486.79117,8272.690979,4217.771936,5780.047003,153961904650,95812382441,24905440145,46772520699,109972789,68437416.03,17789600.1,33408943.36,215,216.4285714,160,172.1428571
44927770.97,30516709.08,7171516.501,6718687.582,3563853.494,3119981.063,1152178.053,1665029.182,6813.199933,5661.454054,2961.739544,2884.406937,64987570664,44872886800,12280661573,11647724733,46419693.33,32052062,8771901.124,8319803.381,170,168.5714286,90.71428571,123.5714286
100805552.5,60417816.65,16502080.47,20000438.79,5980042.598,4703320.102,2552564.436,2922787.339,10110.36278,7867.994219,4252.419282,4641.591158,143107209885,86667466242,25316297651,30162115866,102219435.6,61905333.03,18083069.75,21544368.48,229.2857143,215.7142857,164.2857143,183.5714286
20874954.6,9700025.82,7501432.32,11969153.62,2067902.872,1776713.93,1297648.096,1801927.936,4742.166944,3366.748052,3020.228972,3686.334426,31483406250,15868989420,12770496262,19024686102,22488147.32,11334992.44,9121783.044,13589061.5,127.1428571,122.8571429,104.2857143,127.8571429
828780469.6,772109718.6,15481950.71,29463901.89,6373254.84,5303692.461,2393762.464,3101426.505,28804.64528,27803.64498,4140.701303,5585.192604,1161590625206,1082259743950,24003570192,43672126993,829707589.4,773042674.2,17145407.28,31194376.42,240,223.5714286,161.4285714,187.1428571
90824536.76,72145048.48,9052014.994,14155053.41,5468977.964,5043379.246,1710208.266,2397947.653,9625.182586,8600.020323,3271.593146,3983.749204,129701795729,103544489386,14984650400,22218360814,92644139.81,73960349.56,10703321.71,15870257.72,225.7142857,223.5714286,131.4285714,157.8571429
16854321.62,9055714.945,5213324.08,9188294.332,2068524.327,1694094.452,1215095.307,1700415.069,4299.803588,3275.412246,2610.292701,3287.979386,25883635258,15019655535,9539079177,15135131815,18488310.9,10728325.38,6813627.983,10810808.44,117.1428571,109.2857143,91.42857143,114.2857143
17502506.47,9078915.557,4959073.109,8258405.61,2057225.33,1597336.334,1146694.073,1580952.542,4366.693861,3259.445643,2573.13933,3148.416709,26695221382,14873580259,9269464413,13877538882,19068015.27,10623985.9,6621046.009,9912527.773,125,107.1428571,85.71428571,107.8571429
119686298,68178305.07,18279616.71,22543830.33,6177741.983,4801170.761,2742566.535,3209149.9,11012.1937,8357.117595,4456.319779,4920.961199,169775774172,97777980290,27802300360,33902202777,121268410.1,69841414.49,19858785.97,24215859.13,217.1428571,200,167.1428571,175
11745737.54,4917020.308,4172656.485,4890271.282,1591540.606,1143512.893,970449.62,1119569.614,3662.753175,2565.681106,2412.196493,2552.142767,18782065152,9215807354,8146168690,9118805784,13415760.82,6582719.538,5818691.921,6513432.703,109.2857143,77.85714286,65.71428571,78.57142857
107201525.1,53070970.72,20506558.3,27324869.73,5565239.164,4148437.058,2614722.121,2931554.476,10429.22635,7398.165432,4698.615104,5379.119835,152276267240,76625992460,30907777448,40508902281,108768762.3,54732851.76,22076983.89,28934930.2,227.1428571,203.5714286,164.2857143,184.2857143
40656676.58,25841302.56,6434174.258,6585254.357,3511927.924,2963847.648,1178782.484,1610572.051,6503.316231,5246.71232,2833.676261,2867.389344,59210370803,38539186233,11241609611,11510690306,42293122,27527990.17,8029721.151,8221921.647,168.5714286,162.8571429,90,116.4285714
77893098.99,46032643.66,13154119.7,17325861.83,4909246.175,3876263.13,2146584.688,2769516.762,8912.390083,6898.929958,3844.721213,4347.262631,111202975790,66633328398,20694633686,26458169338,79430696.99,47595234.57,14781881.2,18898692.38,204.2857143,193.5714286,147.8571429,170
44171423.12,29444135.04,12827213.45,6695157.291,3276343.256,2922174.406,1079038.994,1624320.116,6767.306953,5576.240314,3800.276275,2891.176694,64115020754,43532238455,20218939676,11702463744,45796443.4,31094456.04,14442099.77,8358902.674,182.1428571,171.4285714,83.57142857,116.4285714
6974179.034,2444680.045,3417950.831,3955661.003,1232133.308,827277.057,911596.35,991013.3758,2937.405124,2015.785635,2256.924534,2375.302039,12079688410,5688748418,7131191691,7898883685,8628348.864,4063391.727,5093708.35,5642059.775,80.71428571,42.14285714,63.57142857,70
36719884.93,23595158.52,7206108.071,5883511.329,3268492.576,2938547.437,1069092.477,1569817.099,6197.914042,5022.828394,2984.613513,2738.259537,53779793860,35320327106,12471084948,10497291407,38414138.47,25228805.08,8907917.82,7498065.291,168.5714286,168.5714286,72.85714286,110.7142857
101889223.7,56642996.88,15865215.39,21215012.82,5106560.617,4108047.564,2255318.878,2794742.286,10177.84983,7636.765831,4188.783458,4792.371328,145024078138,81648269304,24564269601,32153552119,103588627.2,58320192.36,17545906.86,22966822.94,202.1428571,196.4285714,149.2857143,163.5714286
15423486.92,7483183.82,5074608.35,7381705.4,1932446.847,1455661.911,1142749.923,1470288.148,4124.666306,3021.638646,2581.035012,2990.722401,23818020995,12782420149,9326438424,12522188671,17012872.14,9130300.106,6661741.732,8944420.48,122.1428571,98.57142857,89.28571429,104.2857143
106709275.4,64858667.65,18198551.36,20994700.72,6438836.155,5223599.052,2506675.598,3062292.649,10409.38661,8157.226787,4451.827809,4760.918916,151697461465,93156488392,27746279171,31732888492,108355329.6,66540348.85,19818770.84,22666348.92,223.5714286,210.7142857,162.1428571,184.2857143
86987896.31,70525528.95,7994081.591,12255036.24,5133743.648,4797236.011,1392790.341,2059085.536,9405.932248,8492.339993,3086.794937,3719.137144,123860186034,100967773974,13339624179,19364773536,88471561.45,72119838.55,9528302.985,13831981.1,220.7142857,221.4285714,129.2857143,142.1428571
50610586.57,31308412.22,12047147.25,5762205.916,3188595.441,2822428.055,960431.6782,1386504.261,7230.929917,5738.424897,3707.436417,2721.626377,73200886453,46101328414,19243118698,10370150189,52286347.47,32929520.3,13745084.78,7407250.135,169.2857143,162.1428571,50,105
35027866.27,22767300.54,7455616.933,5641453.033,3351618.214,3040148.321,1019266.885,1547304.647,6044.138236,4932.650647,3005.906623,2686.848288,51144249819,34063459363,12649664474,10106815209,36531607.01,24331042.4,9035474.624,7219153.721,177.8571429,175,71.42857143,107.8571429
21072423.93,10916525.52,5013392.833,10394018.35,2045072.671,1641288.448,1123955.893,1666991.296,4764.827956,3541.491557,2580.820535,3465.555554,31785019632,17559027429,9324888491,16814105414,22703585.45,12542162.45,6660634.636,12010075.3,117.1428571,111.4285714,75.71428571,110.7142857
132789918.9,66369130.96,23808083.62,22435984.65,6193435.893,4937581.362,2693052.655,3131952.883,11591.44707,8246.273799,5041.411017,4910.611753,188106303222,95201444187,35582155055,33759750898,134361645.2,68001031.56,25415825.04,24114107.78,229.2857143,214.2857143,172.1428571,184.2857143
109894237.1,50428540.79,22450138.59,22765007.98,5762018.237,4255777.073,2602586.787,3021873.652,10554.31426,7209.584102,4905.32605,4941.157909,155950969341,72769344094,33687113121,34181058071,111393549.5,51978102.92,24062223.66,24415041.48,207.8571429,195,156.4285714,167.8571429
14719559.14,4996167.202,6331657.924,7885212.066,1683952.313,1129672.882,1178870.019,1411374.371,4036.930159,2569.18252,2818.628568,3083.635802,22815527153,9240978352,11122533806,13312333663,16296805.11,6600698.823,7944667.005,9508809.76,102.8571429,75.71428571,90,95.71428571
23992037.17,17512613.48,4403158.807,3735050.64,2449897.286,2179142.172,715908.7087,1143455.159,5046.140015,4364.724382,2444.471789,2303.858064,35648940676,26671146509,8365619257,7430866770,25463529.05,19050818.94,5975442.326,5307761.979,159.2857143,156.4285714,8.571428571,84.28571429
231866064.1,166588946.9,213935287.4,142994770.9,3403464.407,3215338.703,1520636.936,1876262.151,15287.91355,12990.6485,14687.43111,12046.83094,327208420866,236259727894,302008885791,203176589956,233720300.6,168756948.5,215720632.7,145126135.7,165,161.4285714,102.8571429,122.1428571
155814760,45285255.47,113274543.2,6454325.753,4224557.987,4093105.403,1183707.83,1646490.739,12556.32898,6857.006119,10724.47678,2849.091442,220725956606,65825946073,161020163137,11364250864,157661397.6,47018532.91,115014402.2,8117322.046,185,192.1428571,68.57142857,124.2857143
40918368.81,25169808,13720450.68,5089355.141,3095713.917,3038914.552,910376.6982,1436929.484,6521.5153,5176.005754,3917.933341,2585.010143,59542226529,37507449786,21490282327,9355188417,42530161.81,26791035.56,15350201.66,6682277.441,170,172.1428571,35,102.8571429
37836801.52,24887052.71,5395323.966,15033803.97,2630081.057,2349266.083,1198533.642,1975392.945,6283.827803,5148.408259,2658.513626,4085.799584,55281088601,37108550646,9894772582,23371261539,39486491.86,26506107.6,7067694.702,16693758.24,148.5714286,145,90,135.7142857
50283684.68,33484591.96,13568653.9,5015972.091,3694571.768,3587267.483,844034.9139,1471798.155,7198.058153,5925.843151,3886.746341,2573.752192,72536857641,49161863872,21149515964,9273880487,51812041.17,35115617.05,15106797.12,6624200.348,190.7142857,190.7142857,20.71428571,101.4285714
45876770.14,20950596.58,17025613.97,5045125.833,2921877.031,2623112.403,882523.1443,1344134.776,6885.960065,4753.079506,4309.141069,2589.065166,66383024429,31628470712,25996175453,9384561807,47416446.02,22591764.79,18568696.75,6703258.434,162.1428571,159.2857143,41.42857143,100
128035697.7,90438221.04,27053111.88,23416868.59,6657669.852,5598747.964,2377574.543,3283728.671,11378.83719,9584.517883,5358.816132,4997.881708,181269110200,128608176265,40203674466,34970350188,129477935.9,91862983.05,28716910.33,24978821.56,232.8571429,227.1428571,169.2857143,186.4285714
103699895.5,55753323.75,17792042.92,23821958.22,5185827.295,3931426.275,2383168.131,2816350.913,10250.56732,7566.075167,4396.446065,5041.073916,147103782464,80143690801,27060233204,35577396716,105074130.3,57245493.43,19328738,25412426.23,220,192.8571429,157.8571429,173.5714286
31327791.34,16108819.05,6573832.615,13313661.4,2807995.606,2260306.202,1349376.036,1996008.105,5744.491674,4214.503262,2870.145532,3862.791695,46198858427,24866852847,11532829522,20889623555,32999184.59,17762037.75,8237735.373,14921159.68,140.7142857,127.8571429,95.71428571,127.1428571
15153085.19,7211766.239,4152369.85,6699876.393,1970705.904,1481731.898,1060779.75,1434542.915,4084.800239,2968.781286,2392.284274,2885.111127,23359830188,12339127250,8012233669,11653412700,16685592.99,8813662.321,5723024.049,8323866.214,117.8571429,100,82.85714286,97.14285714
102601495.1,52664849.2,18285126.71,21397564.58,5501146.979,4121252.327,2482334.966,2838767.706,10211.9593,7370.190828,4468.993516,4799.539034,145997757718,76047597976,27960664265,32249804916,104284112.7,54319712.84,19971903.05,23035574.94,207.8571429,190,153.5714286,166.4285714
78076435.13,36412072.31,23384524.73,7942746.037,4224991.413,3685346.114,1291081.539,1855746.116,8927.891923,6164.390953,5007.928617,3094.178441,111590155871,53199602158,35111088650,13403516315,79707254.19,37999715.83,25079349.04,9573940.225,195,184.2857143,101.4285714,145
11292350.82,4624889.507,4263883.586,5993889.848,1722010.248,1158883.268,1023235.295,1308609.981,3603.478448,2505.782085,2437.823142,2769.919316,18179079693,8790521400,8320174342,10741434222,12985056.92,6278943.857,5942981.673,7672453.016,114.2857143,77.85714286,77.85714286,95
104797280.2,54147165.76,18119441.5,23615055.81,5405406.879,4206490.729,2475121.98,2985247.409,10319.69869,7474.449531,4445.140914,5027.888864,149094653371,78214354109,27662988838,35391532993,106496181,55867395.79,19759277.74,25279666.42,205,185.7142857,163.5714286,174.2857143
36986709.09,24275924.58,9034568.363,4160353.868,2985534.83,2826435.801,793609.3454,1262889.951,6214.589548,5088.247969,3270.741213,2408.656473,54069572557,36246374358,14976847318,8122276406,38621123.26,25890267.4,10697748.08,5801626.005,170,169.2857143,12.14285714,90
102427286.9,63056619.27,17205637.06,21560501.28,5808059.493,4630344.522,2352636.171,3006674.38,10205.2106,8043.266664,4351.641125,4819.332819,145804852791,90571794080,26511492677,32516356353,104146323.4,64694138.63,18936780.48,23225968.82,222.1428571,202.8571429,154.2857143,177.1428571
32929476.7,20353551.16,6520131.76,5090514.13,2824742.565,2444463.346,864401.7436,1276237.445,5875.745688,4684.263806,2858.461875,2587.333954,48334142338,30719258366,11439126008,9372015785,34524387.38,21942327.4,8170804.291,6694296.989,160,150.7142857,38.57142857,94.28571429
14419664.38,6594114.865,4980104.78,7238950.147,1932096.388,1474719.374,1134564.359,1474259.797,3994.827989,2863.076649,2560.362498,2970.286924,22342110928,11476091060,9177638569,12351646177,15958650.66,8197207.9,6555456.121,8822604.412,113.5714286,101.4285714,87.85714286,104.2857143
27256852.54,13119610.48,7446713.747,13765770.77,2513891.562,1960769.483,1374741.527,1937942.4,5375.582516,3841.466105,3015.257794,3928.160873,40455642337,20659606565,12728491393,21602626984,28896887.38,14756861.83,9091779.566,15430447.85,135.7142857,130.7142857,106.4285714,132.8571429
24439313.58,12041964.95,7013181.69,4494231.207,2195189.086,1826337.918,766147.0142,1192262.175,5102.501229,3696.020469,2938.190918,2481.550559,36449726315,19124794235,12086152217,8621330451,26035518.8,13660567.31,8632965.869,6158093.179,131.4285714,124.2857143,27.14285714,85.71428571
12237888.3,5290368.09,4508367.661,7074735.35,1904551.767,1410327.919,1128309.081,1475012.137,3718.779724,2629.09284,2473.360444,2952.480479,19361051690,9676980826,8564516642,12203997369,13829322.64,6912129.162,6117511.887,8717140.978,115.7142857,95.71428571,82.14285714,107.8571429
8173097.71,3389731.175,3367045.681,4720105.067,1367684.329,1004422.974,855935.5714,1063933.378,3135.803538,2258.884995,2225.874525,2515.993911,13766569363,7143585990,6936324359,8862315504,9833263.831,5102561.421,4954517.399,6330225.36,94.28571429,69.28571429,62.14285714,84.28571429
115748480.3,63112282.56,19231322.45,22275657.16,6224063.566,4979157.938,2531314.907,3183612,10830.23357,8046.849273,4560.73323,4881.514998,164211542875,90652496503,29120402628,33360864150,117293959.2,64751783.22,20800287.59,23829188.68,220,212.8571429,162.8571429,175.7142857
119065975.8,68740639.61,17187287.42,22751876.79,6112057.352,4913686.656,2483072.786,3060400.213,10980.77698,8385.912139,4333.50158,4936.373009,168808448310,98452931365,26290930324,34114889874,120577463.1,70323522.4,18779235.95,24367778.48,227.8571429,211.4285714,157.8571429,185.7142857
5003943.911,3043080.158,2604700.591,3231761.351,983455.9391,840546.6694,618125.8628,807507.9573,2570.080606,2158.111994,2056.312804,2201.859445,9247440051,6520426327,5919791287,6787459021,6605314.322,4657447.377,4228422.348,4848185.015,84.28571429,68.57142857,62.85714286,69.28571429
162956783.4,94989936.69,24285429.02,28750692.9,6883230.399,5576154.306,2852827.407,3446575.223,12829.27928,9828.547568,5096.607948,5512.94248,230426569684,135240486223,36365577612,42549548700,164590406.9,96600347.3,25975412.58,30392534.79,225,217.8571429,173.5714286,196.4285714
96603933.1,59082376.08,14820754.03,20085701.01,5876867.994,4568558.787,2550598.603,3075261.762,9910.504541,7791.538152,4058.117368,4668.456591,137505340363,84991293492,23055643202,30512281718,98218100.26,60708066.78,16468316.57,21794486.94,215.7142857,203.5714286,160.7142857,170.7142857
52004241.84,34934026.68,9764974.111,8859992.685,3844602.907,3532825.801,1073753.028,1712004.789,7321.620975,6044.966665,3376.64996,3240.598432,75048587179,51158270776,15962470932,14702069475,53606133.7,36541621.98,11401764.95,10501478.2,194.2857143,194.2857143,100,132.8571429
38954858.67,27972952.8,5214116.109,8233579.579,3430794.702,3036353.556,1203574.202,1707651.754,6369.7956,5442.631194,2612.683388,3134.819363,56804014376,41471128043,9556560279,13757929414,40574295.98,29622234.32,6826114.485,9827092.439,175,172.1428571,97.85714286,125.7142857
12092394.17,6452568.276,4174610.692,6296939.964,1708260.977,1333914.223,997223.423,1320364.612,3698.772401,2840.65508,2405.095992,2815.870065,19153284183,11297049796,8098281425,11100773914,13680917.27,8069321.283,5784486.732,7929124.224,112.1428571,96.42857143,81.42857143,95.71428571
116205236.2,79370066.18,40656757.66,48581890.66,5608991.35,4254812.047,2493882.205,2846291.965,10788.87534,8921.929442,6396.840298,6986.342422,162959763454,111441154944,57287392122,68332572612,116399831,79600824.96,40919565.8,48808980.44,284.2857143,267.1428571,218.5714286,244.2857143
983697220.3,45090201244,38329167568,40320048079,3659876.249,9036673.973,8501949.182,10971150.51,31380.30454,212272.099,195713.375,200734.9563,1378612918113,63083221616751,53625215216242,56412331760880,984723512.9,45059444012,38303725154,40294522686,214.2857143,238.5714286,237.8571429,216.4285714
666310847.8,64106007872,62925400652,164458151204,5813157.671,18168625.66,15328280.89,16247063.43,25831.64773,253114.8952,250759.7904,405404.3271,934183634517,89694010208408,88032661476090,230093735858304,667274024.7,64067150149,62880472483,164352668470,250.7142857,235,452.8571429,145.7142857
80872694.43,3606702050,3373189574,24405719077,3031006.895,3605685.089,3749176.345,5871796.864,9074.700737,60049.92585,58069.84521,156172.8017,115290270853,5048391032977,4720949691728,34145921568631,82350193.47,3605993595,3372106923,24389943978,195,152.1428571,194.2857143,192.1428571
605519056.5,90970753601,82071720238,106453791955,5254596.338,24450405.15,22406021.62,22805180.04,24641.5152,301511.2426,286380.811,326164.4458,850085979799,127272641148891,114819556497322,148936543985134,607204271.3,90909029392,82013968927,106383245704,230.7142857,391.4285714,467.8571429,322.8571429
98483616.9,3413306732,2709312324,20905067134,2421010.682,3145971.866,3258499.118,5086660.527,10002.28692,58411.06873,52055.9842,144535.3423,140064040991,4776594130999,3793755687728,29246651249833,100045743.6,3411852951,2709825491,20890465178,169.2857143,171.4285714,160,217.8571429
22803541.98,13482422.82,10802076.48,169970841.8,2212959.019,1602357.797,1618487.911,1716768.07,4940.503533,3885.165721,3525.702575,13091.06017,34172005225,21132317753,17402810109,239926198763,24408575.16,15094512.68,12430578.65,171375856.3,163.5714286,138.5714286,152.8571429,132.8571429
28230612.91,77103176.28,70772689.58,1472376741,2251918.437,1556910.35,1719516.911,2139239.444,5465.008358,8876.106319,8501.834274,38383.3344,41812842892,110299368746,101193660443,2062592503570,29866316.35,78785263.39,72281186.03,1473280360,166.4285714,124.2857143,145.7142857,127.8571429
51695688.89,106016015.2,45394429.05,50846987.16,2475591.198,2089185.769,1748416.33,1766176.682,7300.106748,10366.14544,6864.313712,7239.179096,74608181955,150439759658,65966323824,73367999584,53291558.54,107456971.2,47118802.73,52405713.99,165.7142857,140.7142857,133.5714286,130
29448752.51,15109386.83,7330381.154,17846047.9,2024842.309,1549663.29,1155254.438,1218638.619,5575.099214,4108.475585,2973.379815,4420.842386,43514423740,23631400282,12377382531,27361386369,31081731.24,16879571.63,8840987.522,19543847.41,135,111.4285714,90,87.14285714
765758340.6,188862457187,167911762085,36153440227,5302202.518,20447759.52,18678435.24,14648334.5,27700.41846,434441.2682,409624.5632,190073.4732,1074238456103,264234901772860,234909195901874,50579095288996,767313182.9,188739215552,167792282787,36127925206,255,230.7142857,397.1428571,428.5714286
68651761.85,3179424113,2547458096,11458233214,2478514.006,5237369.161,5295389.717,4357365.084,8375.468708,56379.0035,50471.6569,107009.5699,98207866502,4450028849937,3566343410117,16031467273808,70148476.07,3178592036,2547388150,11451048053,195,292.1428571,284.2857143,167.8571429
22260355.5,206961605.9,267797648,85183169.96,2216820.684,1742919.295,1611363.344,1515629.996,4890.285074,14426.32476,16420.96167,9316.378649,33480843343,291366384671,377507174983,121512875584,23914888.1,208118846.2,269647982.1,86794911.13,143.5714286,138.5714286,117.1428571,109.2857143
328276736.7,74058644868,66592927099,9455314394,5247794.236,15608387.01,13590706.58,9407089.707,18146.28856,272041.3137,257984.2083,97211.61523,461002903772,103609066866498,93178192427062,13230137390657,329287788.4,74006476333,66555851734,9450098136,278.5714286,320.7142857,199.2857143,270
53432888.63,4505599095,3935564267,1647968169,2697208.628,6703754.576,6097555.189,2366460.147,7415.83487,67113.53655,62722.87459,40598.12845,76992449536,6305917502798,5507822594790,2307491247230,54994606.81,4504226788,3934158996,1648208034,175.7142857,310,317.1428571,129.2857143
30747675.73,28543278.24,11375379.79,21567151.78,2910142.251,2626161.199,1761522.644,1856744.017,5692.872522,5488.582431,3617.607346,4822.184672,45372316580,42174351943,18321916072,32554851018,32408797.56,30124537.1,13087082.91,23253465.01,187.1428571,195.7142857,144.2857143,143.5714286
39787870.13,22017231.45,22373309.27,350328392.1,3303192.706,2741410.262,2601725.093,2499083.541,6431.038268,4855.642707,4900.856401,18758.4569,57901554494,33008172531,33625750845,492631587501,41358253.21,23577266.09,24018393.46,351879705.4,207.8571429,185,191.4285714,164.2857143
329051647.7,56032118276,49546118672,45117907973,6116748.725,16475023.77,14016046.55,14649210.03,18179.86143,236635.1741,222510.7524,212337.2914,462710306130,78394687838832,69315448878466,63121975430928,330507361.5,55996205599,49511034913,45087125308,280,265.7142857,394.2857143,311.4285714
33521093.91,509668401,431133694.8,92643601.49,2601557.743,2972503.384,2718464.563,2007488.548,5921.343126,22600.10232,20798.38053,9708.514926,49087226183,715070474794,605601685581,131957366883,35062304.42,510764624.9,432572632.6,94255262.06,190,205,187.8571429,144.2857143
29051845.4,13417189.53,15397360.21,45675946.87,1917243.095,1042581.684,1548855.74,1211038.829,5538.631711,3885.121648,4121.077552,6883.094499,42947017720,21131838302,23776592266,66327785835,30676441.23,15094170.22,16983280.19,47376989.88,172.1428571,92.85714286,170,99.28571429
59263007.93,3477029411,3132443349,20225252115,2902992.795,6422686.65,5129236.701,10274457.02,7795.610694,58953.01417,55970.25017,142176.6061,85080164524,4865641031094,4385736466188,28299862267993,60771546.09,3475457879,3132668904,20214187334,207.1428571,260,197.8571429,275
99394653.23,426882546.7,338166693.8,5787076370,4550996.521,5806155.386,3913428.416,7353251.518,10043.73715,20690.68891,18427.94722,76056.20436,141227318431,599346450393,475424934114,8098364711261,100876656,428104607.4,339589238.7,5784546222,244.2857143,270.7142857,224.2857143,273.5714286
23778996.65,202803118,163151477,425615822,1732520.825,1668779.712,1647458.936,1550498.083,5042.698548,14306.13805,12820.5617,20674.05229,35600332102,286531820229,230113523211,598383013562,25428808.64,204665585.9,164366802.3,427416438.3,134.2857143,153.5714286,160,103.5714286
98936977.71,1400981540,1143891890,3278896085,4120310.683,5648572.333,3597553.555,7372061.957,10029.05252,37439.37063,33833.46396,57251.73688,140814652159,1962389062385,1602584596577,4588865926821,100581894.4,1401706473,1144703283,3277761376,241.4285714,259.2857143,200,307.8571429
144635221.3,2202111724,1810514722,6214893868,5180632.619,7920543.4,5283034.977,7053154.176,12087.79317,46932.01958,42549.10147,78824.11302,204560641359,3083660246355,2534596450632,8698537111804,146114743.8,2202614462,1810426036,6213240794,252.1428571,277.1428571,272.1428571,225.7142857
71432744.68,136221090.2,69354717.03,3270033894,3860803.169,4565689.514,2174499.735,5443311.665,8544.647568,11753.31758,8402.24454,57188.5084,102215402897,193396663944,98836798640,4578735689722,73011002.07,138140474.2,70597713.31,3270525493,218.5714286,226.4285714,205,220.7142857
22054153.84,607895552.3,580870947.5,309934513.8,1554727.754,2337112.385,2101031.43,1291961.686,4857.283175,24676.81132,24128.17201,17642.16587,33030479785,852523023516,815036158485,435744423018,23593199.85,608945016.8,582168684.6,311246016.4,125.7142857,232.8571429,217.1428571,98.57142857
28414710.65,27653635.85,11335678.97,13502706.33,2523456.901,2385515.35,1777648.976,1502773.907,5475.076458,5406.355325,3598.659616,3889.164234,41967047103,40920149065,18130491448,21175837820,29976462.22,29228677.9,12950351.03,15125598.44,172.8571429,187.8571429,157.1428571,115.7142857
22316464.87,10707655.97,5421281.341,8427202.949,1403473.901,959676.8563,789794.0239,883226.2132,4898.444676,3515.050022,2663.312095,3170.304883,33592664340,17297807319,9930523845,14071166274,23994760.24,12355576.66,7093231.318,10050833.05,104.2857143,88.57142857,63.57142857,82.85714286
30823883.28,11058801.11,15109994.59,13457736.6,1792274.623,1230079.118,1141714.45,1160625.569,5686.235649,3549.373513,4088.960674,3880.559524,45266586205,17637273273,23407439153,21082239107,32333275.86,12598052.34,16719599.39,15058742.22,139.2857143,110.7142857,104.2857143,107.1428571
38872936.63,24172410.84,31530277.55,31341993.8,2381196.201,1381939.665,2139257.097,1788852.767,6309.676589,5014.816918,5699.88194,5680.814336,55736826122,35207744211,45484115782,45180312132,39812018.66,25148388.72,32488654.13,32271651.52,197.1428571,127.8571429,195,172.8571429
6658566548,6911517090,4075412246,25174798655,5889123.17,6353018.613,3894739.686,6706848.355,81578.72283,83111.45503,63832.54156,158614.4813,9317123225983,9670519539292,5704430706352,35221975134050,6655088019,6907513957,4074593362,25158553667,232.8571429,277.8571429,196.4285714,239.2857143
6588254750,3951046003,2268324201,5913396581,5816043.821,5069814.574,3712861.727,5408689.107,81158.53039,62850.20342,47639.25687,76889.19388,9221389876163,5530207297987,3177298313187,8276727389696,6586707054,3950148070,2269498795,5911948135,168.5714286,205,162.8571429,174.2857143
2668309826,3067502563,1313887488,4194131440,3417548.061,3899989.862,2221017.55,3233724.632,51649.79723,55377.63936,36256.21611,64750.95298,3734782175036,4293356117378,1840318489324,5869760276679,2667701554,3066682941,1314513207,4192685912,192.1428571,207.1428571,132.8571429,141.4285714
5644761601,4576355300,2274683183,2984911797,5281540.767,4888034.491,3003250.804,4338801.018,75116.29027,67643.72844,47686.82398,54635.78413,7899439888467,6405943596162,3183646453530,4179096470330,5642457063,4575673997,2274033181,2985068907,225.7142857,198.5714286,240,182.8571429
12913455120,6807441149,3554734831,19782068994,6796322.172,5800800.215,3792294.497,6946368.795,113605.97,82503.27651,59604.0841,140615.9732,18068842998869,9529506888852,4973705578484,27681992690821,12906316428,6806790635,3552646842,19772851922,240.7142857,190.7142857,292.1428571,169.2857143
161999848308,2805001077,154455260891,7657844061,14075249.65,4630810.462,13861783.93,5592081.442,402350.0077,52953.74029,392870.0283,87483.15321,226639740206023,3925738054740,216085602814444,10714622933421,161885528719,2804098611,154346859153,7653302095,330.7142857,257.8571429,337.8571429,270.7142857
144340932538,1506670742,105002531058,40784671223,15241980.42,3654338.369,13211981.34,8046178.745,379793.3026,38844.89239,323929.8839,201901.3017,201940133769548,2112495930833,146902797569083,57069789865228,144242952693,1508925665,104930569692,40764135618,257.8571429,166.4285714,277.1428571,99.28571429
17558016022,2210098328,23551823554,6680249397,6259833.682,4571850.887,5926731.501,4753390.103,132459.8057,47020.65015,153411.2358,81703.65475,24563840159038,3095318156981,32949010158453,9345682080308,17545600114,2210941541,23535007256,6675487200,351.4285714,205,447.8571429,480
47606178258,3864262724,44100624718,20228492319,8952376.987,4261384.485,8820602.139,5318771.883,218114.8542,62151.84368,209931.8732,142176.1173,66603725461053,5407992342499,61699947958887,28299667678327,47574089615,3862851673,44071391399,20214048342,188.5714286,246.4285714,210,499.2857143
2626770387,2738327562,3198978355,2955505849,6667615.501,6353254.977,5019741.542,5912260.582,51237.08414,52322.10842,56544.4235,54349.36274,3675334306927,3832644241527,4476180561056,4135394522278,2625238791,2737603030,3197271829,2953853230,325,251.4285714,275.7142857,289.2857143
2610578183,1160508975,2152216707,3824867497,3573402.903,3557161.868,2309682.091,3063885.911,51085.16202,34080.34003,46384.83681,61826.80674,3653571289547,1626057407261,3012174320320,5351575644204,2609693778,1161469577,2151553086,3822554032,208.5714286,190,138.5714286,225
3887049075,1278742813,2245195390,8236885346,3656141.015,3244018.969,2170193.891,3646845.294,62342.19371,35780.88659,47382.48264,90735.2309,5441168763039,1792380583625,3143139525692,11526034976037,3886549116,1280271845,2245099661,8232882126,172.8571429,174.2857143,127.8571429,132.8571429
1913207379,2898048202,5468916756,11215465556,4957652.904,4413564.477,3778445.809,5758480.785,43726.90467,53828.60804,73927.3319,105865.2826,2676859068891,4056526661437,7651350562570,15690441284048,1912042192,2897519044,5465250402,11207458060,346.4285714,220,292.8571429,470.7142857
3092120907,2643041859,2640093571,3256343329,3642008.687,3906585.609,2552213.336,3631921.461,55598.02143,51403.88687,51379.75215,57048.35118,4327595982360,3699303419121,3695830503144,4556320120896,3091139987,2642359585,2639878931,3254514372,217.8571429,256.4285714,220.7142857,227.1428571
115690799514,806091438.3,113467945733,3963715414,15759034.46,2367195.263,15519269.4,3473489.628,340024.0287,28406.6027,336742.4276,62961.50463,161862876099178,1129709107875,158753647600439,5549811491869,115616340071,806935077.1,113395462572,3964151066,237.8571429,144.2857143,234.2857143,126.4285714
3612181190,3266462867,2498342601,3609732976,4634225.764,4566726.575,3265566.229,3312299.111,60095.54542,57146.46008,49984.92659,60074.09547,5056064411327,4572005060080,3497890040164,5052455724363,3611474580,3265717900,2498492886,3608896946,182.8571429,203.5714286,171.4285714,162.1428571
117235861026,1194578729,123501699235,9170594332,13777571.04,2526499.118,14114065.5,4155754.562,342274.9278,34596.4016,351302.7963,95729.2992,164012976677844,1675675405450,172779116518526,12829738215774,117152126198,1196911004,123413654656,9164098726,500,103.5714286,475.7142857,379.2857143
50855539307,250840561.2,45267209720,7304169573,11370953.73,2153307.054,10942880.41,3789327.177,225431.3942,15874.13569,212685.4008,85442.22789,71147038868705,352783457362,63329111570132,10220524028719,50819313478,251988183.8,45235079693,7300374306,430,158.5714286,387.8571429,135
122226437134,386824196.3,117125839693,7848070040,15455270.84,2446906.683,14797380.76,4181230.487,349490.3817,19711.41625,342119.9096,88565.60627,171000937647953,543955902629,163864445581662,10981413258838,122143526891,388539930.4,117046032558,7843866613,294.2857143,133.5714286,287.8571429,159.2857143
3470802071,674149672.4,5822793525,566045526.3,3563968.328,2854492.415,2996009.191,1934731.901,58904.90245,25985.65861,76289.99487,23816.57732,4857702545792,945356234491,8148228644535,794121097589,3469787533,675254453.2,5820163318,567229355.4,201.4285714,192.8571429,160.7142857,149.2857143
3813375727,537784270.3,3956931549,1761487014,4016650.317,3536701.675,2769673.506,2594759.674,61748.82756,23222.70297,62897.51054,41977.92142,5338084786536,755011506568,5538535564626,2467004240994,3812917705,539293933.3,3956096832,1762145886,160,198.5714286,131.4285714,139.2857143
1183934397,1455593337,975981805.2,6884013481,3360238.973,3762029.877,2075817.974,3958410.275,34427.63208,38162.82093,31260.8098,82960.36678,1659366591210,2038961261636,1368133521329,9635391439502,1185261851,1456400901,977238229.5,6882422457,177.8571429,209.2857143,133.5714286,110
2480094198,1761144704,254652179.4,3307583812,4650053.538,4510253.656,2747729.155,4685448.185,49796.21422,41975.45,15983.90009,57501.99593,3471528131294,2466713764348,357679086849,4629071350490,2479662951,1761938403,255485062,3306479536,260.7142857,232.8571429,220,218.5714286
402854717991,775531646.2,382256389015,31210268644,21693194.18,2492114.955,20995967.54,7129801.334,634484.6394,27865.52722,618051.1677,176610.7026,563599060686984,1087082650027,534782144262655,43667876387332,402570757634,776487607.2,381987245902,31191340277,290.7142857,170,280.7142857,154.2857143
2895143331,329009038.7,3182353936,4776061023,3375510.189,2192795.989,2929442.11,3737732.317,53792.90177,18159.68779,56402.13378,69095.26289,4051146792892,461683964655,4453680973049,6683817495127,2893676281,329774260.5,3181200695,4774155354,220.7142857,162.1428571,138.5714286,140.7142857
1725729205,726058943.3,727760622.9,1695812175,3312227.146,3240440.678,2086188.726,2607727.55,41545.03684,26967.12481,26994.36687,41178.77576,2416386120179,1018116148836,1020174180090,2373968202213,1725990086,727225820.6,728695842.9,1695691573,185,211.4285714,161.4285714,183.5714286
410910809.1,375023672.5,324413742.4,1176115618,3631949.215,3287316.418,1966022.486,3426122.957,20296.99735,19392.44519,18051.9312,34296.32813,576755341928,526493702632,456221107967,1646733372316,411968101.4,376066930.5,325872220,1176238123,256.4285714,230.7142857,165,241.4285714
950724535.1,344148960.6,268638306.8,151216808.5,2812233.597,2829501.751,1453254.31,1924806.101,30843.59767,18587.126,16425.2497,12361.36242,1331858523960,483673754215,377704358892,213924593323,951327517.1,345481253,269788827.8,152803280.9,204.2857143,204.2857143,142.8571429,173.5714286
455409700.8,433772101,154783953.5,697583884.8,4539408.139,4477048.834,2436718.386,4080351.231,21355.05656,20843.08982,12501.82446,26440.80785,638453816866,608208150284,218813860653,978762847420,456038440.6,434434393.1,156295614.8,699116319.6,260,255.7142857,169.2857143,195.7142857
154459657292,449214683.1,148141543538,1586383154,14856680.54,2031078.236,14970404.84,2582208.891,392875.5611,21217.56413,384756.6643,39838.38348,216091689107405,630259038380,207252767043849,2221935517576,154351206505,450185027.4,148037690746,1587096798,338.5714286,140,323.5714286,121.4285714
5266140117,1592720776,9971743121,12657049236,3723597.408,3129711.263,4101485.012,4840537.86,72557.07936,39919.19603,99832.06139,112472.1003,7370341671139,2230959095839,13953016674183,17709962688370,5264529765,1593542211,9966440482,12649973349,164.2857143,184.2857143,153.5714286,174.2857143
2864640913,343389933.5,2784311847,969468629.8,2691227.849,1798264.309,2244952.063,2044285.964,53523.54718,18572.79702,52766.68362,31152.40459,4010678144409,482928304895,3898052060345,1358661236179,2864770103,344948789.2,2784322900,970472311.6,128.5714286,127.1428571,104.2857143,129.2857143
5395765924,4307822617,480355357.1,2565138519,5757841.361,5124747.305,3176354.039,4499099.417,73434.83546,65618.63906,21938.12246,50630.51225,7549745082948,6028128108223,673793703800,3588828278913,5392675059,4305805792,481281217,2563448771,277.1428571,243.5714286,221.4285714,348.5714286
416383252,333560286.3,169761189.9,2781192730,3192300.68,3218285.13,1584767.052,2638572.875,20434.89871,18295.23251,13092.00859,52734.24662,584619119293,468601745595,239960964510,3893261072676,417585085.2,334715532.6,171400688.9,2780900766,197.8571429,221.4285714,135.7142857,135.7142857
250204586511,2418109088,227599114451,13787381229,19058750.42,4073799.377,18331776.5,5804287.356,500025.921,49170.39839,476903.2212,117388.8888,350036290316574,3384819308844,318411355327015,19292211707937,250025921655,2417728078,227436682376,13780151220,482.1428571,157.1428571,455.7142857,160
82263383374,1651072124,93806776073,4267439549,9357755.416,2462389.255,9975568.566,3078977.938,286717.8425,40647.35091,306172.4513,65320.63616,115089969719074,2313089990013,131238197881695,5973499710836,82207121228,1652207136,93741569915,4266785508,292.8571429,113.5714286,305.7142857,107.8571429
156743348175,1419197812,175710464344,19709886809,13040294.69,2401332.449,13138198.91,5033890.68,395772.9039,37669.46831,419036.4325,140348.57,219290668056441,1986584379383,245828144439395,27576809534120,156636191469,1418988842,175591531742,19697721096,229.2857143,166.4285714,212.8571429,208.5714286
735213788.8,300437602.6,176146496.5,2562180319,3331979.014,3328454.781,1729399.424,2796258.529,27139.78975,17378.86465,13331.88654,50611.88551,1031195462792,422834910896,248834878257,3586188136387,736568187.7,302024936.4,177739198.8,2561562955,176.4285714,202.8571429,125.7142857,162.8571429
956606842.8,485513959.9,911148112.5,3648430290,4691708.083,4260579.355,2757766.735,4478353.125,30949.82864,22076.41126,30198.37055,60393.98518,1341048649879,682315107645,1276718217485,5106406823507,957891892.8,487367934,911941583.9,3647433445,217.8571429,190,190,192.8571429
2354160316,1835342383,898547524.9,9080865452,4560646.7,4194794.815,2898367.171,5001332.122,48514.17946,42840.47515,29990.08578,95270.10163,3295075851689,2569428835559,1259167343499,12706949171731,2353625608,1835306311,899405245.4,9076392266,245.7142857,217.8571429,190,184.2857143
181173127.1,177269132.7,87459951.83,5172876904,1781872.993,1860556.563,1041935.969,1999667.444,13641.94533,13490.95425,9441.924015,72471.03603,260543741230,254808185208,124809900742,7352871488901,186102672.3,182005846.6,89149929.1,5252051064,133.5714286,139.2857143,114.2857143,19.28571429
17439618758,13632317591,2726469620,6794612142,5073654.352,4754386.098,2706574.746,4337066.225,132021.5634,116723.5738,52219.29796,82402.89925,24401570482784,19074149749019,3817597111779,9506332926245,17429693202,13624392678,2726855080,6790237804,145.7142857,176.4285714,106.4285714,257.1428571
1257963144,396598415.9,438423741.9,8697131074,3256652.002,3005715.473,1498459.02,4052151.58,35470.24869,19937.52341,20967.11936,93240.94107,1761393958967,556506775841,615468131808,12171422329331,1258138542,397504839.9,439620094.1,8693873092,202.1428571,202.1428571,102.1428571,176.4285714
84736176079,12570125378,106055666057,18991966327,11220581.86,5973064.526,11448987.67,7474366.422,291000.9111,112132.2117,325545.6047,137941.5568,118554142358578,17603086075129,148371917039377,26639022344967,84681530256,12573632911,105979940742,19027873104,139.2857143,84.28571429,485.7142857,97.14285714
1354162596,1363795270,1589188306,4153926810,2668406.847,2629279.189,1819675.904,3306183.286,36815.53116,36948.87135,39868.86638,64438.69655,1897536668890,1911306731614,2225337109192,5813283857850,1355383335,1365219094,1589526507,4152345613,125.7142857,139.2857143,78.57142857,185
1605854876,1146693523,359151058.3,3985605558,3152355.183,3040994.469,1373892.932,2903690.698,40083.01465,33881.09528,18985.16226,63137.54946,2249307289269,1607100064337,504610940357,5580890212219,1606648064,1147928617,360436386,3986350152,174.2857143,175,107.8571429,115.7142857
2341802942,1758880639,196670214.2,2545548811,2994298.824,2900022.18,1351273.452,2755746.622,48387.79687,41938.15854,14080.16353,50451.79908,3277930440617,2462332798930,277551406955,3563537641926,2341378886,1758809142,198251005,2545384030,177.8571429,211.4285714,112.8571429,132.8571429
628157567.9,1511458957,992312441.6,15795196814,3386273.286,3795171.29,1947916.577,5075645.552,25073.71028,38884.23279,31505.84336,125640.8855,880167325867,2116776983753,1389665432589,22099884942644,628690947,1511983560,992618166.1,15785632102,232.1428571,232.1428571,160,173.5714286
3620443069,5162386345,1302606777,11581688233,5549937.803,5576102.67,3272281.157,6234224.447,60156.78137,71835.76595,36091.99017,107587.2564,5066373683332,7224528177253,1823684456258,16205024842258,3618838345,5160377269,1302631754,11575017744,266.4285714,222.8571429,232.8571429,219.2857143
2669035850,7554699701,3915143761,33460151120,5039259.829,5635301.923,3642030.147,8182688.6,51648.65183,86891.55701,62557.41588,182863.9565,3734616530206,10570199752259,5478802393811,46814917246020,2667583236,7550142680,3913430281,33439226604,293.5714286,260,215.7142857,199.2857143
7229414141,4128665669,1916768976,5607756069,8416042.118,7430430.582,4541886.919,8128745.48,85022.54884,64269.6466,43782.10472,74863.32147,10120367334639,5782822463120,2683621771179,7846323662537,7228833810,4130587474,1916872694,5604516902,208.5714286,194.2857143,223.5714286,418.5714286
1793667268,1495316208,567867017.6,4743527773,2964458.888,2977959.828,1775377.215,3876285.259,42346.76936,38674.29435,23842.6775,68866.07931,2510548424886,2093981461187,795862578314,6639551631342,1793248875,1495701044,568473270.2,4742536880,200,160.7142857,158.5714286,140.7142857
3121324985,2665125674,584891749.5,6036253659,5023146.235,5150262.642,3063744.386,5619418.457,55856.86589,51619.62896,24199.1232,77676.14162,4367985254368,3730420531763,819836588953,8447016167080,3119989467,2664586094,585597563.5,6033582976,266.4285714,223.5714286,232.8571429,215.7142857
53417410307,311922391.9,58524321660,4834281807,8033299.373,2513262.912,7996390.183,3744915.066,231039.6054,17705.84104,241831.6418,69507.14832,74731018969236,438895529748,81875560178867,6763741133798,53379299264,313496807,58482542985,4831243667,358.5714286,142.8571429,377.1428571,245.7142857
2817250941,956821715.6,1026488839,6462046449,3969164.153,3646767.932,2330735.97,4282115.142,53079.78006,30946.37215,32064.06777,80367.55037,3944448271458,1340749128521,1439346218424,9042520414481,2817463051,957677948.9,1028104442,6458943153,198.5714286,221.4285714,125,193.5714286
20471969683,702705763.7,19574218333,2128304580,6036195.234,2268800.598,5342019.497,2917160.736,143038.7414,26553.27308,139863.4168,46128.76957,28644114170595,987106835905,27386485505122,2979008734831,20460081550,705076311.4,19561775361,2127863382,173.5714286,100.7142857,192.8571429,133.5714286
2384212832,780911076.8,1243015926,4372196600,5025735.729,4845326.217,3201328.482,5406803.607,48828.39679,27958.88697,35272.72929,66104.37182,3337897266117,1094379104971,1741831604337,6117703163529,2384212333,781699360.7,1244165432,4369787974,247.1428571,241.4285714,210,280
2893202528,1556215793,377227296.5,5748358709,3578276.443,3033598.997,1770891.76,3714319.442,53780.72977,39452.34468,19453.42998,75794.46738,4049313652204,2179082501183,529810313423,8042721798684,2892366894,1556487501,378435938.2,5744801285,220,231.4285714,160.7142857,210.7142857
6713447018,8833745124,353734648.5,6621548075,4878738.295,4687912.075,2451847.145,4625614.721,81909.55661,93956.87285,18848.09286,81348.32583,9392845649790,12359051538045,497350846240,9264570162115,6709175464,8827893956,355250604.5,6617550116,287.8571429,267.1428571,168.5714286,258.5714286
2562022511,4383375714,651013346.5,11059934184,4700195.648,4541206.087,2835850.245,5947389.683,50621.4925,66191.35708,25559.30425,105147.969,3587549704251,6133814053652,914589247419,15478533546930,2562535503,4381295753,653278033.9,11056095391,230.7142857,245.7142857,162.1428571,172.1428571
24356223797,23717258692,3689505004,59829037482,6993563.489,6888980.857,3891622.917,10721151.6,156010.9944,153952.4234,60728.57109,244518.9632,34075202528783,33181888138542,5163143086043,83705332714617,24339430378,23701348670,3687959347,59789523368,285.7142857,233.5714286,207.1428571,190.7142857
3392228547,2450482015,147746543.2,6434819633,3174345.444,2933713.683,1407762.553,3621786.069,58241.61354,49504.92412,12228.3844,80194.59894,4748919766545,3431032516595,209346738909,9003643179464,3392085548,2450737512,149533384.9,6431173700,158.5714286,187.8571429,107.1428571,187.1428571
3619561586,6248754229,761100811.6,20389304536,6473286.003,5618529.253,3700403.476,7287289.277,60149.59308,79027.32374,27607.32983,142748.9043,5065162966310,8743445056831,1067030524799,28528149538244,3617973547,6245317898,762164660.6,20377249670,278.5714286,244.2857143,216.4285714,186.4285714
4270535803,1436799468,2294080736,30665116652,4055855.558,3311212.37,3044990.618,6775572.46,65337.15505,37920.92811,47889.85094,175071.8374,5976521361489,2013195504469,3210812952656,42910207557197,4268943830,1437996789,2293437823,30650148255,165.7142857,132.1428571,157.1428571,92.85714286
892340707.6,755691051.8,1289611176,2113192331,6732682.897,5901771.103,4849580.387,6111782.242,29916.67679,27509.74857,35944.49184,45973.89055,1253010570555,1059500772714,1808809090676,2959038057330,895007550.4,756786266.2,1292006493,2113598612,231.4285714,232.1428571,192.1428571,234.2857143
65336539985,1443085634,68153731656,30748826121,9104031.442,1940255.246,8984379.874,7367960.833,255524.605,38002.65436,260973.924,175301.4277,91409953251156,2021882433411,95350344606676,43022826799086,65292823751,1444201738,68107389005,30730590571,243.5714286,113.5714286,244.2857143,158.5714286
15218958271,102781376496,78855631133,58442623229,7327789.172,10664138.69,9434789.954,10260781.64,123332.366,320493.1014,280712.1726,241662.7398,21295221503325,143802159290475,110319053373229,81761231739560,15210872502,102715828065,78799323838,58400879814,171.4285714,125,466.4285714,499.2857143
201664248.1,61734938.92,144615995.6,1820962196,1639620.201,1488763.285,1103852.836,2711858.897,14263.13009,7958.835024,12100.43965,42688.87865,284811631876,88680276916,204988895578,2551276504562,203436879.9,63343054.94,146420639.7,1822340360,100.7142857,114.2857143,72.14285714,105.7142857
1895378330,758034162.4,1024379821,30629557681,4004217.52,3744785.681,2624087.509,6581085.393,43563.11581,27567.25886,32036.52915,174960.4544,2656843082616,1063935265755,1436874880271,42855624868760,1897745059,759953761.3,1026339200,30611160621,197.1428571,192.8571429,184.2857143,185.7142857
682644013.6,270129967,389648596.9,3332613393,2797431.63,2589995.246,1395766.607,2795592.07,26142.23873,16479.17696,19764.77962,57715.97294,956783303991,380188582364,546905118576,4663586945679,683416645.7,271563273.1,390646513.3,3331133533,197.8571429,192.8571429,126.4285714,195
201630418,224260615.6,176729038.6,687001441.9,3082070.702,3193419.981,1666237.599,2420146.102,14259.24456,15025.61685,13357.24963,26228.72083,284656477545,316076826281,249782564610,963124115151,203326055.4,225769161.6,178416117.6,687945796.5,193.5714286,220,148.5714286,175.7142857
77463351467,278950564.7,65040118013,8577207463,9588039.025,1434013.989,8690043.598,3551790.993,278223.352,16771.51832,254938.6051,92596.22172,108371527047128,393797357391,90991169349395,12003684388637,77408233605,281283826.7,64993692392,8574060278,334.2857143,77.14285714,407.8571429,141.4285714
199948471697,141490624.7,189938440739,5552039742,18416860.93,1932550.481,18161009.65,4233857.853,446999.4263,11962.01013,435666.7986,74519.80479,279731881993134,200325560957,265727783156937,7774481829296,199808487138,143089686.4,189805559398,5553201307,328.5714286,122.1428571,332.8571429,99.28571429
687000909,98994834.9,758699161.3,1833222196,2174607.655,2130474.117,1456960.836,2050721.931,26269.23146,10028.09492,27599.38231,42870.98809,966101529814,140787762727,1066416265096,2573090267562,690072521.3,100562687.7,761725903.6,1837921620,153.5714286,172.1428571,86.42857143,100.7142857
13374334804,4680559782,9660612574,3475632658,5329728.716,4177573.52,4017413.917,3838585.692,115608.9478,68403.09838,98256.22402,58945.6874,18711600340884,6550577414631,13515999781573,4864431689013,13365428815,4678983868,9654285558,3474594064,230,168.5714286,190.7142857,143.5714286
1915277012,315314839,1300831453,1618016682,5165421.467,4329769.07,3188720.952,4763917.912,43759.98733,17797.07469,36068.38386,40220.01326,2680911087997,443430214322,1821299639657,2264709253455,1914936491,316735867.4,1300928314,1617649467,266.4285714,229.2857143,222.8571429,277.8571429
1105683214,273574581.6,714047752.7,1865433032,5408562.15,4898230.141,2733409.845,4548064.199,33257.05183,16590.99818,26730.00334,43191.54016,1548444094896,385365709000,1000290309902,2611712797705,1106031496,275261220.7,714493078.5,1865509141,272.1428571,219.2857143,214.2857143,217.8571429
929382009.2,204410926.2,933750007.8,370090928.5,2887511.504,2157825.804,2307582.112,2437085.346,30498.83858,14350.91227,30569.72219,19254.87171,1302250816497,288328156196,1308311080395,519050118588,930179154.6,205948683,934507914.6,370750084.7,156.4285714,134.2857143,116.4285714,155
276883824.4,244016679.9,404406259.8,431510287.3,3991608.86,3807623.544,2082480.297,2525465.024,16655.53366,15658.19585,20126.29599,20786.33424,388369522010,343250736174,567094906149,604900367562,277406801.4,245179097.3,405067790.1,432071691.1,247.1428571,225.7142857,145.7142857,210
6420702788,855248668.3,3286338955,22670766277,3951457.826,3176886.431,2386077.381,5041217.293,80115.45915,29264.10265,57325.70246,150523.0116,8985881512194,1198942785218,4600730627227,31720047810243,6418486794,856387703.7,3286236162,22657177007,174.2857143,192.1428571,98.57142857,162.1428571
252135351,251445609,250203244.1,825108306.5,3496154.103,3553298.551,1576725.248,2584658.92,15927.18575,15907.79053,15861.92548,28745.13804,355145344275,354280919273,352240951931,1156796145670,253675245.9,253057799.5,251600680,826282961.2,195,202.1428571,107.1428571,164.2857143
17242038808,583699354.1,12392941907,17889834023,5189691.427,2272962.395,4234952.209,6162652.991,131269.2335,24186.82889,111291.9497,133720.5737,24124256319300,819003768144,17340257309899,25033668549145,17231611657,585002691.5,12385898078,17881191821,186.4285714,135.7142857,187.8571429,112.8571429
2240807026,384106876.2,2537426809,1152819741,5903962.867,5001302.237,4093134.489,4930972.555,47331.99637,19640.98019,50363.75175,33962.09946,3136445032778,540075343707,3551110485989,1614793879631,2240317881,385768102.6,2536507490,1153424200,282.8571429,230,223.5714286,235
131953773.2,50839910.95,115738787.5,3494833203,2796064.334,2525366.862,1398178.045,2721913.039,11538.99016,7231.229514,10820.89474,59109.22227,186407611638,73206952407,163928468164,4891460219995,133148294,52290680.29,117091763,3493900157,210,209.2857143,112.1428571,162.1428571
86158264870,69094357.37,79990875495,3105281654,15415776.13,1488225.736,14468133.48,3099250.711,293423.6345,8422.787223,282726.5749,55717.14476,120536400967797,99320682451,111908042638388,4346160308766,86097429263,70943344.61,79934316170,3104400221,384.2857143,92.85714286,379.2857143,146.4285714
1429042085,280327005.3,1525563954,807307797.7,3617219.141,3180571.638,2013373.414,2368219.815,37803.04053,16778.80172,39060.65384,28412.64845,2000697822371,394139461990,2136028549553,1130190029100,1429069873,281528187.1,1525734678,807278592.2,232.8571429,212.8571429,112.1428571,219.2857143
700388559.9,160118673.5,906121661.2,770707968.2,5056952.795,5075801.772,2883106.419,4557177.332,26521.67081,12704.87893,30155.42528,27819.59534,984758631670,225979527954,1273089543629,1083501838504,703399022.6,161413948.5,909349674,773929884.6,193.5714286,221.4285714,135,182.8571429
357313588.1,258591129.5,490288221.2,361353885.5,3103819.505,3002654.815,1873073.857,2319613.226,18963.20725,16136.37403,22183.40705,19076.34324,503444521039,364535593624,688944967537,509469620106,359603229.3,260382566.9,492103548.2,363906871.5,182.8571429,189.2857143,102.8571429,137.1428571
860835630.9,271961361,690217683.2,234168756.2,5326308.575,4495211.208,3181684.459,4592286.741,29350.68925,16532.32592,26287.84435,15343.51244,1206048142836,382644920325,967471064661,329592723391,861462959.2,273317800.2,691050760.5,235423373.9,260.7142857,222.8571429,210.7142857,216.4285714
1387521726,380079017.3,1393665161,3718533662,6591108.132,5640610.965,3799172.03,6486716.057,37252.51786,19577.37036,37332.16681,60978.24341,1942850121305,536582802155,1951166949855,5205684636748,1387750087,383273430.1,1393690678,3718346169,277.1428571,202.8571429,234.2857143,207.1428571
286323413414,10648725784,260190658467,10053461205,21910598.24,5235731.005,20271115.63,6372021.449,534905.5875,103167.8903,509910.456,100238.3484,400573582558990,14901059025918,364012142404091,14066817072983,286123987542,10643613590,260008673146,10047726481,289.2857143,116.4285714,305,182.1428571
410161618.8,1992462286,1834805892,3528537267,1950325.018,2683344.232,2278635.556,3463597.185,20291.03908,44636.13158,42845.08684,59387.96113,576416773973,2789337938972,2569982052708,4937701898543,411726267.1,1992384242,1835701466,3526929928,112.8571429,158.5714286,100.7142857,152.1428571
220448565.9,486064720.4,521292351.7,5322426301,3225461.513,3335060.379,1671486.135,3954208.81,14891.47668,22075.62398,22856.31582,72934.16605,310458509000,682266444003,731375642230,7447149608350,221756077.9,487333174.3,522411173,5319392577,183.5714286,205,136.4285714,173.5714286
950865260.1,1305594183,1222101842,3609402265,4931229.503,4217677.062,2671564.959,4296884.759,30853.30184,36141.26902,34972.70191,60063.98822,1332696727920,1828667856866,1712325830237,5050755753993,951926234.2,1306191326,1223089879,3607682681,229.2857143,235,197.8571429,230
