0.37376,0.34517,0.37279,0.41869,0.5509,0.5363,0.49022,0.53495,0.54812,0.60317,0.57918,0.52314,0.47502,0.66563,0.93593,1.1559,1.2581,1.2215,1.256,1.2829,1.3766,1.4562,1.4647,1.3993,1.4461,1.5208,1.6055,1.6012,1.6307,1.6319,1.814,2.0737,2.2772,2.3548,2.3584,2.4242,2.5817,2.7419,2.7601,2.6505,2.6102,2.6502,2.9468,3.2301,3.3609,2.9534,2.9019,2.3672,2.4745,0.85341,1.3083,1.5455,1.2827,1.8743,2.2202,1.6059,0.17024,-0.56993,-2.9582,-3.6786,-2.4864,-0.4879,-0.10152,-0.90735,-2.3745,-6.8,-6.049,-1.4423,-0.94579,-2.7163,-3.4864,-2.9347,-2.3926,-2.0581,-1.5525,-1.3135,-1.3037,-1.4164,-1.4501,-1.3765,-1.3161,-0.74196,-0.53613,-0.51045,-0.92201,-0.88334,-0.76842,-0.6987,-0.72286,-0.89449,-0.98528,-0.79169,-0.62957,-0.55729,-0.52697,-0.49647,-0.46732,-0.34308,-0.25087,-0.16379,-0.14981,0.11552,0.11817,0.064433,0.12169,0.124,0.0041212,-0.055159,-0.040267,-0.01651,-0.10312,-0.14054,-0.28649,-0.088519,0.14284,0.37982,0.41405,0.45027,0.4097,0.35581,0.36801,0.26584,0.15445,0.098646,0.07232,0.14713,0.15789,0.030367,-0.064822,-0.090545,0.11737,0.29535,0.44893,0.60079,0.42723,0.32902,0.27807,0.10362,-0.012176,-0.079428,-0.1842,-0.28397,-0.19801,-0.18995,-0.28266,-0.34501,-0.39734,-0.33754,-0.15926,-0.06154,-0.058177,-0.22728,-0.30745,-0.43236,-0.47401,-0.59175,-0.67347,-0.77207,-0.83676,-0.8552,-0.96299,-0.97136,-1.0294,-1.0716,-1.0195,-0.91387,-0.93454,-0.97025,-0.94731,-1.0885,-1.2743,-1.4654,-1.7138,-2.0398,-2.157,-2.1897,-2.3106,-2.6236,-2.9357,-3.2762,-3.1298,-2.7919,-3.006,-3.6555,-4.0519,-4.0491,-3.4494,-2.3713,-1.938,-1.4254,1.8818,2.5714,2.9645,3.4659,3.5205,3.3532,3.2863,4.1339,4.2363,3.8838,2.7471,2.5548,2.4414,2.7792,2.7684,3.1307,3.7568,3.5369,3.4109,3.2554,2.0276,1.6957,2.0525,2.4472,3.2396,3.4124,2.9421,1.7975,1.4955,1.382,1.3897,1.3398,1.1688,1.0233,1.1136,1.1445,1.253,1.4345,1.3689,1.2833,0.86834,0.69889,0.69656,0.76244,0.88203,0.73254,0.69706,0.6708,0.73505,0.65452,0.4707,0.23411,0.17973,0.15702,0.06092,-0.16453,-0.1865,-0.14463,-0.15466,-0.043966,0.029717,0.1163,0.049854,-0.084604,-0.20487,-0.30013,-0.45556,-0.60112,-0.80305,-0.83435,-0.84294,-0.81783,-0.84045,-0.83223,-0.80034,-0.75838,-0.67826,-0.63742,-0.64908,-0.63041,-0.71309,-0.8504,-0.95494,-1.0743,-1.1476,-1.1375,-1.0373,-0.99505,-1.0235,-1.0601,-1.0621,-1.008,-0.91661,-0.83081,-0.78549,-0.78911,-0.86701,-0.93223,-0.97348,-1.048,-1.0958,-1.0989,-1.0631,-1.0926,-1.0751,-1.0532,-1.0345,-1.0524,-0.98207,-0.91815,-0.82857,-0.74335,-0.70345,-0.73281,-0.78104,-0.83717,-0.8861,-0.90674,-0.95785,-0.86682,-0.81191,-0.78734,-0.7942,-0.80072,-0.73254,-0.79364,-0.65544,-0.52951,-0.48172,-0.40245,-0.45938,-0.4573,-0.49668,-0.56386,-0.52952,-0.52772,-0.53497,-0.47608,-0.45246,-0.42357,-0.46277,-0.42346,-0.3363,-0.23137,-0.14855,-0.071404,-0.10311,-0.081836,-0.070719,-0.064253,-0.085741,-0.1143,-0.066729,-0.033431,0.02105,0.034369,0.018046,-0.0229,0.056144,0.10757,0.27812,0.38429,0.41351,0.37734,0.32703,0.30391,0.20551,0.18568,0.19793,0.2821,0.38483,0.42564,0.42057,0.28515,0.27685,0.35631,0.47188,0.62769,0.67858,0.6575,0.65243,0.6374,0.57522,0.54165,0.51916,0.46218,0.47449,0.52881,0.58493,0.59477,0.58537,0.54125,0.61445,0.72213,0.78453,0.74564,0.74869,0.70256,0.68385,0.6147,0.61007,0.58433,0.63263,0.6755,0.74494,0.73899,0.69055,0.60566,0.55626,0.55532,0.57489,0.65255,0.70232,0.73399,0.68501,0.6248,0.61994,0.6082,0.58045,0.55452,0.5513,0.56672,0.53593,0.50783,0.41639,0.40568,0.4363,0.47632,0.53457,0.49908,0.49129,0.47811,0.41281,0.2942,0.2419,0.21597,0.29617,0.35565,0.35055,0.33665,0.26473,0.17763,0.13487,0.090189,0.11498,0.12297,0.083208,0.14761,0.13632,0.1411,0.12519,0.11171,0.091396,0.10215,0.077142,0.054673,-0.0062834,-0.075002,-0.078086,-0.11451,-0.094806,-0.080418,-0.04131,-0.077337,-0.075017,-0.082987,-0.078933,-0.12981,-0.1723,-0.18405,-0.20876,-0.16944,-0.2016,-0.26238,-0.35553,-0.34411,-0.33805,-0.32216,-0.31259,-0.30691,-0.29601,-0.24711,-0.28698,-0.35352,-0.39755,-0.42787,-0.46576,-0.41592,-0.41788,-0.3783,-0.42922,-0.50496,-0.55227,-0.57845,-0.60087,-0.58963,-0.53761,-0.51296,-0.45367,-0.45143,-0.47528,-0.47141,-0.56053,-0.55246,-0.53747,-0.50377,-0.5312,-0.56658,-0.62377,-0.65883,-0.64498,-0.62958,-0.53868,-0.43737,-0.39973,-0.33588,-0.43414,-0.44998,-0.54254,-0.57823,-0.56243,-0.51246,-0.47529,-0.49157,-0.43647,-0.4776,-0.43156,-0.45247,-0.47142,-0.4462,-0.51293,-0.50268,-0.50215,-0.41568,-0.38526,-0.39249,-0.38536,-0.40148,-0.41878,-0.44892,-0.48992,-0.45754,-0.45314,-0.47788,-0.53218,-0.47927,-0.41033,-0.32654,-0.23798,-0.19849,-0.14551,-0.18232,-0.25555,-0.20687,-0.14733,-0.088534,-0.075837,-0.071731,-0.10544,-0.062638,0.052833,0.06565,0.016788,-0.021689,-0.046386,0.0044755,0.042458,0.059786,0.13552,0.24385,0.25675,0.24656,0.23369,0.1771,0.18434,0.22247,0.25935,0.29802,0.26903,0.28692,0.28286,0.32738,0.37327,0.40678,0.38426,0.42011,0.45508,0.50099,0.52275,0.5112,0.52759,0.52993,0.52147,0.50997,0.50227,0.50245,0.4407,0.46523,0.53785,0.64934,0.67658,0.71632,0.70706,0.59158,0.52353,0.54469,0.60527,0.579,0.60497,0.65374,0.62861,0.57437,0.56569,0.56642,0.57902,0.6405,0.63343,0.68823,0.68477,0.62863,0.53953,0.58011,0.67507,0.73101,0.83309,0.66092,0.58251,0.54542,0.48266,0.50036,0.45151,0.48744,0.50246,0.48761,0.53361,0.55615,0.4918,0.51004,0.51637,0.53723,0.50935,0.48658,0.40093,0.383,0.33958,0.34331,0.31367,0.28795,0.24053,0.17695,0.19405,0.26917,0.28303,0.25114,0.27293,0.21206,0.1218,0.11687,0.11113,0.047024,0.023551,0.015579,0.014773,-0.061251,-0.13285,-0.11045,-0.099453,-0.08287,-0.086435,-0.11442,-0.17957,-0.18211,-0.12273,-0.14179,-0.16176,-0.22121,-0.25656,-0.31362,-0.35354,-0.35604,-0.40174,-0.47578,-0.52109,-0.5023,-0.48271,-0.48763,-0.51248,-0.52688,-0.50932,-0.47448,-0.42561,-0.46123,-0.568,-0.63651,-0.64478,-0.67569,-0.75054,-0.79717,-0.79137,-0.78547,-0.75314,-0.76378,-0.76446,-0.73954,-0.72909,-0.6869,-0.67948,-0.71263,-0.76157,-0.83257,-0.81283,-0.87439,-0.93046,-0.96585,-0.97045,-0.94873,-0.88466,-0.8355,-0.83698,-0.82666,-0.8879,-0.84519,-0.74163,-0.72999,-0.73841,-0.75929,-0.82045,-0.81252,-0.85084,-0.85921,-0.8899,-0.95603,-0.91169,-0.8955,-0.82903,-0.7822,-0.75284,-0.67195,-0.59349,-0.50709,-0.4273,-0.45067,-0.54679,-0.5881,-0.62294,-0.60314,-0.60369,-0.62851,-0.64084,-0.56871,-0.49073,-0.40897,-0.34878,-0.29427,-0.24897,-0.13883,-0.081622,-0.017472,-0.05669,-0.037365,-0.050507,-0.054908,-0.019909,-0.090896,-0.072689,-0.064189,-0.00094142,0.060752,0.18978,0.26469,0.38549,0.54052,0.67175,0.7935,0.72255,0.63186,0.55457,0.60876,0.7022,0.7436,0.77972,0.69559,0.72495,0.77413,0.85143,1.0556,1.1818,1.2948,1.4037,1.6106,1.6712,1.5699,1.4705,1.449,1.4946,1.7109,1.8171,1.7416,1.6652,1.6029,1.6317,1.706,1.8403,1.9417,2.1119,2.3357,2.4883,2.5493,2.5302,2.5044,2.3943,2.4209,2.3118,2.0166,1.9697,2.4412,2.64,2.558,2.4798,2.3923,1.4572,0.84128,0.4449,1.1724,1.7688,2.8715,1.6693,1.0444,0.94473,2.5805,2.5962,2.5435,0.8922,0.04176,-1.6323,-1.5483,-2.0253,-2.5873,-3.1395,-5.0028,-5.5937,-4.2997,-3.2783,-1.9159,-1.7682,-1.9239,-2.2204,-1.879,-0.97339,-0.72231,-0.60424,-0.93536,-1.1572,-1.2204,-0.84368,-0.67946,-0.78501,-0.94107,-1.3927,-1.5049,-1.4387,-1.3922,-1.3777,-1.4887,-1.7604,-1.4729,-1.3674,-1.2217,-1.1795,-1.1667,-1.1891,-1.1342,-0.93167,-0.84445,-0.99279,-1.1214,-1.169,-1.3742,-1.3974,-1.489,-1.5232,-1.5209,-1.4682,-1.3649,-1.2746,-1.148,-1.1794,-1.2824,-1.3165,-1.049,-1.0291,-1.1858,-1.294,-1.4003,-1.4455,-1.5298,-1.6123,-1.7817,-1.9016,-1.7431,-1.7198,-1.7269,-1.76,-1.8325,-1.9717,-2.0028,-2.0977,-2.1882,-2.2696,-1.8307,-1.7026,-1.4529,-1.2616,-1.4135,-1.6104,-0.90411,0.36794,0.98299,1.7514,1.7493,3.1481,2.9324,2.5846,2.7489,2.876,2.9565,3.5205,3.3981,3.5102,2.7151,2.261,2.1348,1.9406,1.7399,1.7707,1.81,2.0994,2.3641,2.6455,2.7003,2.5389,2.2406,1.8985,1.6664,1.641,1.9096,2.1504,2.1569,2.0364,1.7804,1.5758,1.3125,1.3182,1.4385,1.4965,1.5929,1.6136,1.5639,1.3712,1.1277,0.97803,0.90681,0.71113,0.69265,0.66827,0.55978,0.49981,0.41351,0.36951,0.20667,0.23405,0.37304,0.31005,0.20084,0.09858,0.10101,0.0072442,-0.097389,-0.10874,-0.050768,-0.10659,-0.19289,-0.35005,-0.39193,-0.36183,-0.42787,-0.3974,-0.31376,-0.20535,-0.20959,-0.26901,-0.44397,-0.51575,-0.6298,-0.69434,-0.61953,-0.6285,-0.64135,-0.70861,-0.70004,-0.69204,-0.72033,-0.7396,-0.75432,-0.72675,-0.69086,-0.67282,-0.70493,-0.79091,-0.89357,-0.95986,-0.85459,-0.80218,-0.77469,-0.80845,-0.81834,-0.89945,-0.9121,-0.85769,-0.86136,-0.82376,-0.74855,-0.68134,-0.71227,-0.8165,-0.91215,-0.97065,-0.96118,-0.86928,-0.81277,-0.74433,-0.76756,-0.75844,-0.75268,-0.75837,-0.76961,-0.79703,-0.74689,-0.70626,-0.64886,-0.61478,-0.63547,-0.73552,-0.75544,-0.68344,-0.62041,-0.56467,-0.49193,-0.50291,-0.48132,-0.4698,-0.43772,-0.48154,-0.46492,-0.44746,-0.48273,-0.43758,-0.44328,-0.48438,-0.44841,-0.36779,-0.32042,-0.22327,-0.20833,-0.16947,-0.1367,-0.14759,-0.13867,-0.14761,-0.19271,-0.13927,-0.12629,-0.030705,0.076933,0.036348,0.048044,-0.0003695,0.056411,0.065913,0.11784,0.16329,0.23868,0.27234,0.25722,0.25708,0.20269,0.18754,0.19731,0.27138,0.31639,0.34305,0.30664,0.25849,0.22116,0.24196,0.3514,0.42823,0.5354,0.50078,0.5284,0.50269,0.48939,0.4954,0.39554,0.46468,0.41404,0.44686,0.47041,0.47665,0.47313,0.43684,0.44832,0.54284,0.64279,0.63547,0.69947,0.64428,0.64108,0.5755,0.49309,0.52399,0.46893,0.58812,0.61474,0.63976,0.61464,0.57593,0.56856,0.56521,0.49798,0.54953,0.60697,0.62633,0.63286,0.6156,0.57116,0.54602,0.48852,0.45668,0.38628,0.41341,0.4437,0.45816,0.45137,0.46851,0.48733,0.48134,0.48839,0.46611,0.51369,0.4732,0.40695,0.34852,0.30889,0.23923,0.20174,0.20724,0.24297,0.28032,0.29402,0.27801,0.24586,0.21759,0.20538,0.1724,0.21929,0.22517,0.17783,0.17569,0.069925,0.019671,-0.018823,-0.088524,-0.10691,-0.094074,-0.050613,-0.073946,-0.030838,-0.035444,-0.06752,-0.079659,-0.11198,-0.065416,-0.024228,-0.037467,-0.11753,-0.23065,-0.32246,-0.39349,-0.37471,-0.29878,-0.19677,-0.14968,-0.14737,-0.21914,-0.26364,-0.29255,-0.33563,-0.36372,-0.35067,-0.34302,-0.31773,-0.32557,-0.40429,-0.49322,-0.58667,-0.54391,-0.51688,-0.43838,-0.35598,-0.3981,-0.43779,-0.47834,-0.4616,-0.45922,-0.51679,-0.46082,-0.41028,-0.4537,-0.46065,-0.57391,-0.61555,-0.64929,-0.61378,-0.56438,-0.47904,-0.43892,-0.48828,-0.49077,-0.48563,-0.49354,-0.51793,-0.49479,-0.50369,-0.51827,-0.48391,-0.56135,-0.55888,-0.6194,-0.58833,-0.52427,-0.45911,-0.41138,-0.41759,-0.39993,-0.43448,-0.41805,-0.37828,-0.32156,-0.364,-0.32804,-0.33513,-0.36981,-0.40807,-0.4692,-0.43565,-0.41281,-0.25363,-0.21925,-0.18089,-0.16318,-0.18627,-0.21495,-0.22539,-0.21498,-0.22665,-0.22357,-0.18045,-0.14537,-0.14122,-0.17641,-0.19383,-0.21275,-0.20085,-0.10379,-0.0025525,0.088556,0.05934,-0.0037048,-0.027391,-0.068452,-0.092197,-0.13592,-0.064526,0.055554,0.19828,0.23827,0.3473,0.23801,0.12618,0.11389,0.17206,0.21922,0.21893,0.24475,0.21562,0.23171,0.3344,0.3121,0.36755,0.37185,0.38061,0.37639,0.37472,0.34217,0.27492,0.28407,0.41614,0.53324,0.62459,0.63709,0.61322,0.58019,0.52489,0.47979,0.48238,0.49856,0.56786,0.60838,0.63436,0.59175,0.62992,0.57207,0.61547,0.69947,0.75509,0.78436,0.73813,0.70317,0.63291,0.63825,0.62099,0.58064,0.58826,0.61437,0.64858,0.63253,0.69304,0.69906,0.63679,0.67426,0.59436,0.65733,0.65998,0.63319,0.59041,0.54822,0.51358,0.51885,0.50081,0.50017,0.52041,0.51754,0.53522,0.52531,0.49314,0.49305,0.47758,0.515,0.47852,0.42807,0.3906,0.37636,0.33028,0.28849,0.18214,0.15538,0.14929,0.16788,0.2357,0.25626,0.28054,0.24415,0.19844,0.19893,0.17706,0.12214,0.0614,0.020607,-0.027019,-0.041874,-0.12023,-0.16206,-0.15949,-0.19836,-0.14206,-0.10196,-0.072949,-0.042646,-0.19226,-0.25404,-0.27213,-0.27543,-0.30022,-0.3604,-0.39724,-0.47716,-0.45274,-0.49705,-0.53828,-0.56605,-0.59735,-0.52712,-0.50274,-0.46064,-0.4644,-0.5176,-0.59444,-0.6972,-0.69945,-0.67195,-0.59349,-0.50709,-0.4273,-0.45067,-0.54679,-0.5881,-0.62294,-0.60314,-0.60369,-0.62851,-0.64084,-0.56871,-0.49073,-0.40897,-0.34878,-0.29427,-0.24897,-0.13883,-0.081622,-0.017472,-0.05669,-0.037365,-0.050507,-0.054908,-0.019909,-0.090896,-0.072689,-0.064189,-0.00094142,0.060752,0.18978,0.26469,0.38549,0.54052,0.67175,0.7935,0.72255,0.63186,0.55457,0.60876,0.7022,0.7436,0.77972,0.69559,0.72495,0.77413,0.85143,1.0556,1.1818,1.2948,1.4037,1.6106,1.6712,1.5699,1.4705,1.449,1.4946,1.7109,1.8171,1.7416,1.6652,1.6029,1.6317,1.706,1.8403,1.9417,2.1119,2.3357,2.4883,2.5493,2.5302,2.5044,2.3943,2.4209,2.3118,2.0166,1.9697,2.4412,2.64,2.558,2.4798,2.3923,1.4572,0.84128,0.4449,1.1724,1.7688,2.8715,1.6693,1.0444,0.94473,2.5805,2.5962,2.5435,0.8922,0.04176,-1.6323,-1.5483,-2.0253,-2.5873,-3.1395,-5.0028,-5.5937,-4.2997,-3.2783,-1.9159,-1.7682,-1.9239,-2.2204,-1.879,-0.97339,-0.72231,-0.60424,-0.93536,-1.1572,-1.2204,-0.84368,-0.67946,-0.78501,-0.94107,-1.3927,-1.5049,-1.4387,-1.3922,-1.3777,-1.4887,-1.7604,-1.4729,-1.3674,-1.2217,-1.1795,-1.1667,-1.1891,-1.1342,-0.93167,-0.84445,-0.99279,-1.1214,-1.169,-1.3742,-1.3974,-1.489,-1.5232,-1.5209,-1.4682,-1.3649,-1.2746,-1.148,-1.1794,-1.2824,-1.3165,-1.049,-1.0291,-1.1858,-1.294,-1.4003,-1.4455,-1.5298,-1.6123,-1.7817,-1.9016,-1.7431,-1.7198,-1.7269,-1.76,-1.8325,-1.9717,-2.0028,-2.0977,-2.1882,-2.2696,-1.8307,-1.7026,-1.4529,-1.2616,-1.4135,-1.6104,-0.90411,0.36794,0.98299,1.7514,1.7493,3.1481,2.9324,2.5846,2.7489,2.876,2.9565,3.5205,3.3981,3.5102,2.7151,2.261,2.1348,1.9406,1.7399,1.7707,1.81,2.0994,2.3641,2.6455,2.7003,2.5389,2.2406,1.8985,1.6664,1.641,1.9096,2.1504,2.1569,2.0364,1.7804,1.5758,1.3125,1.3182,1.4385,1.4965,1.5929,1.6136,1.5639,1.3712,1.1277,0.97803,0.90681,0.71113,0.69265,0.66827,0.55978,0.49981,0.41351,0.36951,0.20667,0.23405,0.37304,0.31005,0.20084,0.09858,0.10101,0.0072442,-0.097389,-0.10874,-0.050768,-0.10659,-0.19289,-0.35005,-0.39193,-0.36183,-0.42787,-0.3974,-0.31376,-0.20535,-0.20959,-0.26901,-0.44397,-0.51575,-0.6298,-0.69434,-0.61953,-0.6285,-0.64135,-0.70861,-0.70004,-0.69204,-0.72033,-0.7396,-0.75432,-0.72675,-0.69086,-0.67282,-0.70493,-0.79091,-0.89357,-0.95986,-0.85459,-0.80218,-0.77469,-0.80845,-0.81834,-0.89945,-0.9121,-0.85769,-0.86136,-0.82376,-0.74855,-0.68134,-0.71227,-0.8165,-0.91215,-0.97065,-0.96118,-0.86928,-0.81277,-0.74433,-0.76756,-0.75844,-0.75268,-0.75837,-0.76961,-0.79703,-0.74689,-0.70626,-0.64886,-0.61478,-0.63547,-0.73552,-0.75544,-0.68344,-0.62041,-0.56467,-0.49193,-0.50291,-0.48132,-0.4698,-0.43772,-0.48154,-0.46492,-0.44746,-0.48273,-0.43758,-0.44328,-0.48438,-0.44841,-0.36779,-0.32042,-0.22327,-0.20833,-0.16947,-0.1367,-0.14759,-0.13867,-0.14761,-0.19271,-0.13927,-0.12629,-0.030705,0.076933,0.036348,0.048044,-0.0003695,0.056411,0.065913,0.11784,0.16329,0.23868,0.27234,0.25722,0.25708,0.20269,0.18754,0.19731,0.27138,0.31639,0.34305,0.30664,0.25849,0.22116,0.24196,0.3514,0.42823,0.5354,0.50078,0.5284,0.50269,0.48939,0.4954,0.39554,0.46468,0.41404,0.44686,0.47041,0.47665,0.47313,0.43684,0.44832,0.54284,0.64279,0.63547,0.69947,0.64428,0.64108,0.5755,0.49309,0.52399,0.46893,0.58812,0.61474,0.63976,0.61464,0.57593,0.56856,0.56521,0.49798,0.54953,0.60697,0.62633,0.63286,0.6156,0.57116,0.54602,0.48852,0.45668,0.38628,0.41341,0.4437,0.45816,0.45137,0.46851,0.48733,0.48134,0.48839,0.46611,0.51369,0.4732,0.40695,0.34852,0.30889,0.23923,0.20174,0.20724,0.24297,0.28032,0.29402,0.27801,0.24586,0.21759,0.20538,0.1724,0.21929,0.22517,0.17783,0.17569,0.069925,0.019671,-0.018823,-0.088524,-0.10691,-0.094074,-0.050613,-0.073946,-0.030838,-0.035444,-0.06752,-0.079659,-0.11198,-0.065416,-0.024228,-0.037467,-0.11753,-0.23065,-0.32246,-0.39349,-0.37471,-0.29878,-0.19677,-0.14968,-0.14737,-0.21914,-0.26364,-0.29255,-0.33563,-0.36372,-0.35067,-0.34302,-0.31773,-0.32557,-0.40429,-0.49322,-0.58667,-0.54391,-0.51688,-0.43838,-0.35598,-0.3981,-0.43779,-0.47834,-0.4616,-0.45922,-0.51679,-0.46082,-0.41028,-0.4537,-0.46065,-0.57391,-0.61555,-0.64929,-0.61378,-0.56438,-0.47904,-0.43892,-0.48828,-0.49077,-0.48563,-0.49354,-0.51793,-0.49479,-0.50369,-0.51827,-0.48391,-0.56135,-0.55888,-0.6194,-0.58833,-0.52427,-0.45911,-0.41138,-0.41759,-0.39993,-0.43448,-0.41805,-0.37828,-0.32156,-0.364,-0.32804,-0.33513,-0.36981,-0.40807,-0.4692,-0.43565,-0.41281,-0.25363,-0.21925,-0.18089,-0.16318,-0.18627,-0.21495,-0.22539,-0.21498,-0.22665,-0.22357,-0.18045,-0.14537,-0.14122,-0.17641,-0.19383,-0.21275,-0.20085,-0.10379,-0.0025525,0.088556,0.05934,-0.0037048,-0.027391,-0.068452,-0.092197,-0.13592,-0.064526,0.055554,0.19828,0.23827,0.3473,0.23801,0.12618,0.11389,0.17206,0.21922,0.21893,0.24475,0.21562,0.23171,0.3344,0.3121,0.36755,0.37185,0.38061,0.37639,0.37472,0.34217,0.27492,0.28407,0.41614,0.53324,0.62459,0.63709,0.61322,0.58019,0.52489,0.47979,0.48238,0.49856,0.56786,0.60838,0.63436,0.59175,0.62992,0.57207,0.61547,0.69947,0.75509,0.78436,0.73813,0.70317,0.63291,0.63825,0.62099,0.58064,0.58826,0.61437,0.64858,0.63253,0.69304,0.69906,0.63679,0.67426,0.59436,0.65733,0.65998,0.63319,0.59041,0.54822,0.51358,0.51885,0.50081,0.50017,0.52041,0.51754,0.53522,0.52531,0.49314,0.49305,0.47758,0.515,0.47852,0.42807,0.3906,0.37636,0.33028,0.28849,0.18214,0.15538,0.14929,0.16788,0.2357,0.25626,0.28054,0.24415,0.19844,0.19893,0.17706,0.12214,0.0614,0.020607,-0.027019,-0.041874,-0.12023,-0.16206,-0.15949,-0.19836,-0.14206,-0.10196,-0.072949,-0.042646,-0.19226,-0.25404,-0.27213,-0.27543,-0.30022,-0.3604,-0.39724,-0.47716,-0.45274,-0.49705,-0.53828,-0.56605,-0.59735,-0.52712,-0.50274,-0.46064,-0.4644,-0.5176,-0.59444,-0.6972,-0.69945,-0.71809,-0.70226,-0.72865,-0.76315,-0.80051,-0.87127,-0.8732,-0.92386,-0.90518,-0.87986,-0.79793,-0.77731,-0.74491,-0.77285,-0.82751,-0.89426,-0.95475,-0.95666,-0.95732,-0.96956,-0.99078,-1.0516,-1.0412,-1.0638,-1.0314,-0.94907,-0.88978,-0.81157,-0.74227,-0.78892,-0.82956,-0.92061,-0.97473,-0.97898,-0.95704,-0.97511,-0.93453,-0.90597,-0.91339,-0.88808,-0.93171,-0.90865,-0.89646,-0.72431,-0.58535,-0.51123,-0.53412,-0.62263,-0.70751,-0.73699,-0.67755,-0.6304,-0.59421,-0.60691,-0.62995,-0.58383,-0.58015,-0.53643,-0.48321,-0.39227,-0.21659,-0.026032,0.0072789,-0.071682,-0.16773,-0.19971,-0.19688,-0.10652,-0.039071,0.010935,0.046172,0.11309,0.067512,0.082472,0.075212,0.16261,0.36682,0.60806,0.80556,0.81248,0.74538,0.57784,0.56985,0.56975,0.65182,0.7675,0.85856,0.94232,0.94931,0.98111,0.9701,1.0174,1.1398,1.3459,1.5711,1.7143,1.7199,1.6587,1.5648,1.5491,1.5818,1.6771,1.7211,1.8183,1.907,1.9574,1.9558,1.9412,1.9674,2.1217,2.3911,2.6477,2.7825,2.7368,2.616,2.5686,2.5815,2.6669,2.7269,2.5533,2.757,3.0335,3.76,3.8154,3.9717,3.7982,3.116,3.4982,3.6851,0.9315,-0.37933,-0.51696,-0.79945,-0.69048,-0.52186,-0.39373,0.53767,0.66193,0.095614,-0.60349,-2.1523,-2.7226,-3.2216,-5.1831,-5.6005,-3.4793,-1.7934,-0.81346,-1.1102,-1.7064,-1.986,-1.8044,-1.3374,-1.0107,-1.0827,-0.9947,-0.8295,-0.61359,-0.53509,-0.68151,-0.63209,-0.92823,-1.0662,-1.3307,-1.3046,-1.1673,-1.0933,-0.97824,-0.59731,-0.8489,-1.0142,-1.1106,-1.0857,-1.0207,-1.1491,-0.82477,-0.66535,-0.52866,-0.52756,-0.60375,-0.7673,-1.0181,-1.1513,-1.1072,-0.99568,-0.96748,-1.0026,-0.97394,-1.1686,-1.2791,-1.4284,-1.3977,-1.1985,-1.2105,-1.0714,-0.95052,-0.89388,-0.9594,-1.1021,-1.2835,-1.343,-1.4737,-1.5918,-1.7612,-1.8596,-1.6811,-1.642,-1.6361,-1.7082,-1.819,-2.1908,-2.3811,-2.7988,-3.238,-1.5315,-0.93058,-0.87455,-1.9042,-2.4203,-3.0006,-3.5872,-3.7336,-2.5377,-1.7303,0.16521,0.20441,0.18252,0.12613,0.17733,0.58551,1.1449,2.5243,3.1889,3.7668,3.9624,3.5361,2.4825,2.0719,2.2375,2.3041,2.5083,3.145,2.8941,2.3576,1.7244,1.1158,1.1112,1.3235,1.6439,1.5865,1.3992,1.1695,1.7487,2.8185,2.7774,2.5077,2.3328,2.1251,1.9551,1.9222,1.9202,1.9541,1.9125,1.619,1.4687,1.4278,1.4462,1.4997,1.4893,1.4248,1.3899,1.3535,1.1857,1.0409,0.88052,0.78131,0.79497,0.85016,0.90026,0.81922,0.57676,0.34438,0.1744,0.19861,0.19667,0.29827,0.31264,0.35959,0.29852,0.19922,0.058783,-0.073367,-0.15966,-0.13697,-0.1491,-0.058368,-0.13162,-0.25855,-0.41372,-0.45628,-0.39338,-0.42056,-0.42356,-0.46983,-0.5498,-0.57124,-0.63286,-0.72222,-0.77722,-0.70153,-0.61397,-0.49123,-0.46358,-0.58489,-0.69191,-0.82882,-0.86069,-0.84679,-0.86592,-0.8221,-0.81419,-0.80725,-0.82608,-0.88519,-0.98849,-0.92837,-0.8763,-0.7731,-0.70632,-0.66973,-0.75952,-0.82855,-0.8147,-0.84775,-0.81958,-0.86464,-0.80808,-0.78482,-0.73891,-0.76084,-0.81515,-0.85362,-0.78178,-0.66431,-0.52593,-0.51937,-0.57777,-0.65895,-0.72854,-0.6763,-0.6514,-0.57999,-0.58605,-0.58763,-0.59342,-0.54804,-0.5775,-0.59105,-0.63156,-0.52677,-0.4272,-0.30602,-0.26106,-0.4068,-0.39986,-0.36905,-0.3951,-0.2935,-0.29453,-0.25949,-0.22184,-0.19403,-0.19881,-0.30705,-0.34207,-0.32028,-0.26057,-0.095044,-0.0028206,0.012294,-0.031353,-0.044816,-0.099045,-0.11995,-0.017202,0.015624,0.052361,0.12067,0.13454,0.077922,0.032649,0.082445,0.12878,0.2336,0.30636,0.36299,0.35244,0.34347,0.30701,0.26274,0.24318,0.22861,0.25696,0.32727,0.31535,0.34446,0.30167,0.25521,0.28527,0.34719,0.4456,0.5245,0.51326,0.48418,0.44061,0.37613,0.36893,0.37398,0.38754,0.4114,0.47418,0.51327,0.48167,0.35518,0.31416,0.32764,0.39495,0.43822,0.48288,0.54894,0.51061,0.50432,0.47943,0.46641,0.42902,0.40002,0.41916,0.46964,0.45378,0.40157,0.3728,0.34483,0.33954,0.43557,0.45705,0.53963,0.47749,0.40437,0.36942,0.30688,0.32341,0.31349,0.35235,0.36684,0.33292,0.25969,0.19565,0.17749,0.20031,0.23724,0.28857,0.3161,0.27353,0.2043,0.1689,0.13838,0.14648,0.15508,0.14506,0.15282,0.12944,0.11408,0.063797,0.00049458,-0.0046759,0.0036147,0.04328,0.11506,0.12136,0.1377,0.072402,0.045461,-0.051202,-0.081145,-0.10427,-0.10811,-0.13243,-0.12775,-0.15359,-0.13775,-0.18806,-0.20344,-0.14366,-0.1769,-0.12518,-0.13172,-0.18352,-0.20138,-0.21863,-0.20964,-0.20041,-0.21549,-0.20849,-0.228,-0.22771,-0.22187,-0.30429,-0.33295,-0.3947,-0.43573,-0.40801,-0.43799,-0.44642,-0.34513,-0.31283,-0.3227,-0.38008,-0.4006,-0.40259,-0.38347,-0.36344,-0.36644,-0.43071,-0.49561,-0.53464,-0.54134,-0.47539,-0.4212,-0.38441,-0.35033,-0.38183,-0.37626,-0.41886,-0.54093,-0.54982,-0.53669,-0.54493,-0.41911,-0.42204,-0.47061,-0.44167,-0.4208,-0.35061,-0.32635,-0.28385,-0.32087,-0.27645,-0.33317,-0.50141,-0.71666,-0.61904,-0.39812,-0.26702,-0.094125,0.069042,0.070771,0.00045825,0.3404,-0.053939,-0.3517,-0.12846,-0.20137,-0.30737,-0.21464,-0.046579,0.0045687,0.0044945,0.040044,-0.019823,0.0059155,-0.043034,-0.062667,-0.052323,0.0027792,0.075206,0.14454,0.11951,0.1102,0.17347,0.18287,0.24672,0.34292,0.3545,0.31791,0.28838,0.19369,0.21321,0.22817,0.27767,0.33783,0.34042,0.38005,0.39694,0.34665,0.31979,0.34394,0.32155,0.31294,0.30088,0.33964,0.37631,0.41791,0.42719,0.39695,0.33243,0.34929,0.38771,0.4356,0.49655,0.4516,0.44152,0.4371,0.38877,0.44183,0.46517,0.44048,0.44061,0.40619,0.43865,0.43362,0.42356,0.42343,0.45104,0.50296,0.54772,0.54936,0.50059,0.46782,0.38304,0.41033,0.42615,0.4051,0.40874,0.40571,0.43717,0.46092,0.4358,0.37514,0.34238,0.38652,0.44695,0.47541,0.44008,0.35495,0.30453,0.22025,0.21547,0.22895,0.23768,0.23775,0.23374,0.22122,0.15706,0.14498,0.11667,0.17296,0.23713,0.26117,0.26142,0.18529,0.038773,0.015907,-0.059773,-0.058133,-0.009268,0.034037,0.036521,0.033186,0.0098893,-0.11451,-0.17209,-0.1906,-0.1766,-0.092836,0.027658,-0.043888,-0.12021,-0.28526,-0.33247,-0.39262,-0.41525,-0.40024,-0.42456,-0.37726,-0.34685,-0.38313,-0.45077,-0.50697,-0.49838,-0.37972,-0.28161,-0.28674,-0.39259,-0.53143,-0.65809,-0.72063,-0.72323,-0.6677,-0.67532,-0.61628,-0.6263,-0.66675,-0.68054,-0.75542,-0.75985,-0.70926,-0.62236,-0.51869,-0.5146,-0.62094,-0.77018,-0.87846,-0.91082,-0.92584,-0.92323,-0.88025,-0.83303,-0.76096,-0.73312,-0.76257,-0.79572,-0.83284,-0.79913,-0.60903,-0.54741,-0.57569,-0.63779,-0.6304,-0.59421,-0.60691,-0.62995,-0.58383,-0.58015,-0.53643,-0.48321,-0.39227,-0.21659,-0.026032,0.0072789,-0.071682,-0.16773,-0.19971,-0.19688,-0.10652,-0.039071,0.010935,0.046172,0.11309,0.067512,0.082472,0.075212,0.16261,0.36682,0.60806,0.80556,0.81248,0.74538,0.57784,0.56985,0.56975,0.65182,0.7675,0.85856,0.94232,0.94931,0.98111,0.9701,1.0174,1.1398,1.3459,1.5711,1.7143,1.7199,1.6587,1.5648,1.5491,1.5818,1.6771,1.7211,1.8183,1.907,1.9574,1.9558,1.9412,1.9674,2.1217,2.3911,2.6477,2.7825,2.7368,2.616,2.5686,2.5815,2.6669,2.7269,2.5533,2.757,3.0335,3.76,3.8154,3.9717,3.7982,3.116,3.4982,3.6851,0.9315,-0.37933,-0.51696,-0.79945,-0.69048,-0.52186,-0.39373,0.53767,0.66193,0.095614,-0.60349,-2.1523,-2.7226,-3.2216,-5.1831,-5.6005,-3.4793,-1.7934,-0.81346,-1.1102,-1.7064,-1.986,-1.8044,-1.3374,-1.0107,-1.0827,-0.9947,-0.8295,-0.61359,-0.53509,-0.68151,-0.63209,-0.92823,-1.0662,-1.3307,-1.3046,-1.1673,-1.0933,-0.97824,-0.59731,-0.8489,-1.0142,-1.1106,-1.0857,-1.0207,-1.1491,-0.82477,-0.66535,-0.52866,-0.52756,-0.60375,-0.7673,-1.0181,-1.1513,-1.1072,-0.99568,-0.96748,-1.0026,-0.97394,-1.1686,-1.2791,-1.4284,-1.3977,-1.1985,-1.2105,-1.0714,-0.95052,-0.89388,-0.9594,-1.1021,-1.2835,-1.343,-1.4737,-1.5918,-1.7612,-1.8596,-1.6811,-1.642,-1.6361,-1.7082,-1.819,-2.1908,-2.3811,-2.7988,-3.238,-1.5315,-0.93058,-0.87455,-1.9042,-2.4203,-3.0006,-3.5872,-3.7336,-2.5377,-1.7303,0.16521,0.20441,0.18252,0.12613,0.17733,0.58551,1.1449,2.5243,3.1889,3.7668,3.9624,3.5361,2.4825,2.0719,2.2375,2.3041,2.5083,3.145,2.8941,2.3576,1.7244,1.1158,1.1112,1.3235,1.6439,1.5865,1.3992,1.1695,1.7487,2.8185,2.7774,2.5077,2.3328,2.1251,1.9551,1.9222,1.9202,1.9541,1.9125,1.619,1.4687,1.4278,1.4462,1.4997,1.4893,1.4248,1.3899,1.3535,1.1857,1.0409,0.88052,0.78131,0.79497,0.85016,0.90026,0.81922,0.57676,0.34438,0.1744,0.19861,0.19667,0.29827,0.31264,0.35959,0.29852,0.19922,0.058783,-0.073367,-0.15966,-0.13697,-0.1491,-0.058368,-0.13162,-0.25855,-0.41372,-0.45628,-0.39338,-0.42056,-0.42356,-0.46983,-0.5498,-0.57124,-0.63286,-0.72222,-0.77722,-0.70153,-0.61397,-0.49123,-0.46358,-0.58489,-0.69191,-0.82882,-0.86069,-0.84679,-0.86592,-0.8221,-0.81419,-0.80725,-0.82608,-0.88519,-0.98849,-0.92837,-0.8763,-0.7731,-0.70632,-0.66973,-0.75952,-0.82855,-0.8147,-0.84775,-0.81958,-0.86464,-0.80808,-0.78482,-0.73891,-0.76084,-0.81515,-0.85362,-0.78178,-0.66431,-0.52593,-0.51937,-0.57777,-0.65895,-0.72854,-0.6763,-0.6514,-0.57999,-0.58605,-0.58763,-0.59342,-0.54804,-0.5775,-0.59105,-0.63156,-0.52677,-0.4272,-0.30602,-0.26106,-0.4068,-0.39986,-0.36905,-0.3951,-0.2935,-0.29453,-0.25949,-0.22184,-0.19403,-0.19881,-0.30705,-0.34207,-0.32028,-0.26057,-0.095044,-0.0028206,0.012294,-0.031353,-0.044816,-0.099045,-0.11995,-0.017202,0.015624,0.052361,0.12067,0.13454,0.077922,0.032649,0.082445,0.12878,0.2336,0.30636,0.36299,0.35244,0.34347,0.30701,0.26274,0.24318,0.22861,0.25696,0.32727,0.31535,0.34446,0.30167,0.25521,0.28527,0.34719,0.4456,0.5245,0.51326,0.48418,0.44061,0.37613,0.36893,0.37398,0.38754,0.4114,0.47418,0.51327,0.48167,0.35518,0.31416,0.32764,0.39495,0.43822,0.48288,0.54894,0.51061,0.50432,0.47943,0.46641,0.42902,0.40002,0.41916,0.46964,0.45378,0.40157,0.3728,0.34483,0.33954,0.43557,0.45705,0.53963,0.47749,0.40437,0.36942,0.30688,0.32341,0.31349,0.35235,0.36684,0.33292,0.25969,0.19565,0.17749,0.20031,0.23724,0.28857,0.3161,0.27353,0.2043,0.1689,0.13838,0.14648,0.15508,0.14506,0.15282,0.12944,0.11408,0.063797,0.00049458,-0.0046759,0.0036147,0.04328,0.11506,0.12136,0.1377,0.072402,0.045461,-0.051202,-0.081145,-0.10427,-0.10811,-0.13243,-0.12775,-0.15359,-0.13775,-0.18806,-0.20344,-0.14366,-0.1769,-0.12518,-0.13172,-0.18352,-0.20138,-0.21863,-0.20964,-0.20041,-0.21549,-0.20849,-0.228,-0.22771,-0.22187,-0.30429,-0.33295,-0.3947,-0.43573,-0.40801,-0.43799,-0.44642,-0.34513,-0.31283,-0.3227,-0.38008,-0.4006,-0.40259,-0.38347,-0.36344,-0.36644,-0.43071,-0.49561,-0.53464,-0.54134,-0.47539,-0.4212,-0.38441,-0.35033,-0.38183,-0.37626,-0.41886,-0.54093,-0.54982,-0.53669,-0.54493,-0.41911,-0.42204,-0.47061,-0.44167,-0.4208,-0.35061,-0.32635,-0.28385,-0.32087,-0.27645,-0.33317,-0.50141,-0.71666,-0.61904,-0.39812,-0.26702,-0.094125,0.069042,0.070771,0.00045825,0.3404,-0.053939,-0.3517,-0.12846,-0.20137,-0.30737,-0.21464,-0.046579,0.0045687,0.0044945,0.040044,-0.019823,0.0059155,-0.043034,-0.062667,-0.052323,0.0027792,0.075206,0.14454,0.11951,0.1102,0.17347,0.18287,0.24672,0.34292,0.3545,0.31791,0.28838,0.19369,0.21321,0.22817,0.27767,0.33783,0.34042,0.38005,0.39694,0.34665,0.31979,0.34394,0.32155,0.31294,0.30088,0.33964,0.37631,0.41791,0.42719,0.39695,0.33243,0.34929,0.38771,0.4356,0.49655,0.4516,0.44152,0.4371,0.38877,0.44183,0.46517,0.44048,0.44061,0.40619,0.43865,0.43362,0.42356,0.42343,0.45104,0.50296,0.54772,0.54936,0.50059,0.46782,0.38304,0.41033,0.42615,0.4051,0.40874,0.40571,0.43717,0.46092,0.4358,0.37514,0.34238,0.38652,0.44695,0.47541,0.44008,0.35495,0.30453,0.22025,0.21547,0.22895,0.23768,0.23775,0.23374,0.22122,0.15706,0.14498,0.11667,0.17296,0.23713,0.26117,0.26142,0.18529,0.038773,0.015907,-0.059773,-0.058133,-0.009268,0.034037,0.036521,0.033186,0.0098893,-0.11451,-0.17209,-0.1906,-0.1766,-0.092836,0.027658,-0.043888,-0.12021,-0.28526,-0.33247,-0.39262,-0.41525,-0.40024,-0.42456,-0.37726,-0.34685,-0.38313,-0.45077,-0.50697,-0.49838,-0.37972,-0.28161,-0.28674,-0.39259,-0.53143,-0.65809,-0.72063,-0.72323,-0.6677,-0.67532,-0.61628,-0.6263,-0.66675,-0.68054,-0.75542,-0.75985,-0.70926,-0.62236,-0.51869,-0.5146,-0.62094,-0.77018,-0.87846,-0.91082,-0.92584,-0.92323,-0.88025,-0.83303,-0.76096,-0.73312,-0.76257,-0.79572,-0.83284,-0.79913,-0.60903,-0.54741,-0.57569,-0.63779,-0.78123,-0.89084,-0.92427,-0.84029,-0.8163,-0.71202,-0.64153,-0.63478,-0.61734,-0.72403,-0.73628,-0.6838,-0.56072,-0.38356,-0.30455,-0.33162,-0.47745,-0.56743,-0.60421,-0.56511,-0.52495,-0.47683,-0.38137,-0.29083,-0.24846,-0.24565,-0.35248,-0.32783,-0.21206,-0.0019355,0.14458,0.19027,0.09188,-0.020167,-0.1117,-0.074155,-0.035912,0.060754,0.13487,0.22022,0.35779,0.38714,0.33557,0.23867,0.35006,0.53016,0.77441,0.97322,0.94041,0.81121,0.6712,0.5795,0.62112,0.71713,0.83496,1.0071,1.1478,1.2771,1.2476,1.1785,1.1032,1.1993,1.4689,1.6833,1.843,1.7894,1.6384,1.5179,1.4994,1.569,1.6815,1.7801,1.9716,2.1167,2.1531,2.1209,2.0773,2.0722,2.2558,2.4462,2.7034,2.7243,2.6184,2.4973,2.4746,2.775,2.1458,1.98,2.3814,3.6907,4.0305,3.8494,2.9936,2.775,2.7361,2.9184,0.62364,-0.22195,-0.23513,-0.41017,-0.41423,-0.15325,0.56475,1.4221,0.96972,-0.1099,-2.0173,-2.5813,-2.3784,-1.4285,-0.094361,-1.6812,-2.9566,-5.5671,-5.3657,-4.397,-2.2448,-1.6362,-1.2171,-1.1419,-1.7681,-2.1951,-2.063,-1.5065,-1.4337,-1.6215,-1.9649,-1.9887,-1.7777,-1.3044,-0.96842,-0.8833,-0.96367,-1.5033,-1.8028,-1.9102,-1.8735,-1.7255,-1.5366,-1.3359,-1.1391,-1.1625,-1.5243,-1.6759,-1.7743,-1.6703,-1.3146,-0.87023,-0.94464,-1.2268,-1.5008,-1.856,-1.9925,-1.8898,-1.7039,-1.5309,-1.3218,-1.2599,-1.674,-1.8136,-1.9636,-1.9549,-1.839,-1.6972,-1.6227,-1.8765,-2.1217,-2.2003,-2.131,-2.2299,-2.4854,-3.4061,-3.7921,-4.2352,-4.4771,-4.6167,-3.0895,-2.5676,-2.5295,-1.3844,-1.1633,-0.77151,-0.14663,2.5749,2.9225,3.188,3.3464,3.3642,3.1577,2.3597,2.3476,3.1004,3.4642,3.7752,3.583,3.57,2.7304,2.4242,2.315,2.297,2.5891,2.3925,2.3566,2.4953,2.4498,2.4661,2.3039,2.298,2.3627,2.2395,2.1734,2.2034,2.3666,2.6902,2.6895,2.5294,2.2478,1.916,1.75,1.6737,1.5712,1.5398,1.489,1.495,1.4598,1.3912,1.2714,1.3522,1.3267,1.4677,1.5512,1.3954,1.0652,0.72143,0.50874,0.42156,0.36887,0.3563,0.4811,0.5783,0.64548,0.6603,0.65163,0.4113,0.29986,0.24158,0.35434,0.36932,0.32172,0.096196,-0.13412,-0.26208,-0.34354,-0.36989,-0.36397,-0.29788,-0.23073,-0.21283,-0.2491,-0.39136,-0.51606,-0.53756,-0.52405,-0.48646,-0.50233,-0.64157,-0.81279,-0.99903,-1.0749,-1.0818,-1.0472,-0.91319,-0.79784,-0.69796,-0.72408,-0.83753,-0.95671,-1.1041,-1.0742,-0.92954,-0.76392,-0.76896,-0.87564,-1.0161,-1.1153,-1.1447,-1.1572,-1.1394,-1.0636,-0.97704,-0.91375,-0.91523,-0.98605,-0.999,-1.0233,-0.92223,-0.77265,-0.70239,-0.7972,-0.8964,-1.0728,-1.125,-1.0445,-0.99815,-0.89669,-0.81085,-0.72247,-0.69957,-0.70727,-0.80274,-0.81765,-0.80159,-0.74952,-0.61052,-0.60251,-0.64063,-0.75959,-0.78887,-0.76704,-0.73575,-0.67797,-0.57009,-0.51439,-0.39829,-0.38647,-0.39883,-0.47997,-0.46448,-0.42195,-0.2982,-0.21767,-0.19869,-0.27506,-0.33734,-0.30241,-0.3987,-0.43014,-0.37062,-0.2601,-0.1402,-0.032404,0.031356,0.015789,-0.047881,-0.04731,0.0049039,0.082065,0.097333,0.094216,0.08728,0.07713,0.065158,0.086665,0.12835,0.14908,0.21413,0.2474,0.30067,0.28032,0.26266,0.24257,0.2538,0.30094,0.427,0.44917,0.39295,0.38966,0.36193,0.36179,0.4165,0.41673,0.4581,0.50884,0.5242,0.52189,0.56171,0.57951,0.52873,0.5392,0.60576,0.66252,0.65875,0.59658,0.56314,0.47268,0.51125,0.52493,0.54417,0.60703,0.64138,0.63812,0.655,0.64875,0.66582,0.61531,0.61579,0.58594,0.61867,0.59721,0.60293,0.57786,0.56588,0.52689,0.49111,0.4949,0.50619,0.56131,0.54194,0.58266,0.53458,0.51468,0.53288,0.48213,0.46588,0.44211,0.41307,0.3871,0.36991,0.39583,0.34938,0.33768,0.32856,0.29086,0.29688,0.37579,0.33746,0.3616,0.3413,0.27947,0.28627,0.25316,0.22059,0.23109,0.21467,0.1678,0.15619,0.20828,0.1551,0.17094,0.12929,0.091441,0.092704,0.091013,0.11819,0.097871,0.098125,0.093387,0.052643,0.022757,-0.028132,-0.032114,-0.069284,-0.082285,-0.10405,-0.058824,-0.077935,-0.088417,-0.12683,-0.15583,-0.11903,-0.15624,-0.21366,-0.21587,-0.22957,-0.30006,-0.31663,-0.31341,-0.3039,-0.33938,-0.35263,-0.41165,-0.43447,-0.41447,-0.42158,-0.31259,-0.36989,-0.35681,-0.35587,-0.4142,-0.4562,-0.57325,-0.56137,-0.55732,-0.49827,-0.44069,-0.43535,-0.44629,-0.43196,-0.44935,-0.49359,-0.49541,-0.52052,-0.49747,-0.51096,-0.5059,-0.49215,-0.56927,-0.67553,-0.67958,-0.54353,-0.50482,-0.47634,-0.39864,-0.33264,-0.418,-0.49848,-0.54072,-0.53525,-0.47679,-0.4422,-0.37563,-0.36999,-0.39367,-0.4647,-0.48087,-0.39255,-0.37949,-0.33137,-0.33748,-0.36448,-0.36693,-0.409,-0.41404,-0.3781,-0.32945,-0.26223,-0.25691,-0.29828,-0.29583,-0.31994,-0.27208,-0.30558,-0.22978,-0.24448,-0.19394,-0.1653,-0.11851,-0.079941,-0.11767,-0.085079,-0.12215,-0.10745,-0.071497,0.0097412,0.038051,0.034034,-0.027517,-0.0056787,0.015376,0.1063,0.13241,0.17829,0.20126,0.17388,0.1773,0.17483,0.12962,0.12454,0.069509,0.13941,0.2173,0.27241,0.22247,0.16083,0.15752,0.19296,0.2537,0.27808,0.31328,0.29227,0.33519,0.36845,0.35812,0.33876,0.36249,0.33701,0.36994,0.40074,0.40444,0.38104,0.39463,0.43901,0.48308,0.54101,0.58561,0.60746,0.57853,0.57996,0.5716,0.58317,0.54874,0.45347,0.45926,0.48428,0.46746,0.41819,0.38673,0.4374,0.45439,0.57313,0.62063,0.64888,0.6216,0.62234,0.57993,0.48802,0.51324,0.46291,0.50525,0.54233,0.55723,0.484,0.45675,0.42144,0.37241,0.32561,0.36658,0.36293,0.41246,0.44975,0.55209,0.53747,0.53382,0.43261,0.33099,0.22469,0.22069,0.29484,0.31687,0.28049,0.21105,0.17134,0.1985,0.19981,0.28806,0.3267,0.28681,0.31588,0.28932,0.1934,0.074954,0.039199,0.0027061,-0.039515,-0.043918,-0.069093,-0.10703,-0.16246,-0.11981,-0.015899,0.046891,0.018856,-0.019424,-0.057786,-0.10043,-0.10666,-0.18319,-0.2389,-0.27306,-0.30295,-0.30728,-0.3169,-0.38133,-0.41092,-0.38019,-0.3933,-0.39694,-0.3399,-0.33363,-0.32905,-0.35958,-0.33458,-0.34985,-0.47601,-0.56998,-0.63024,-0.64791,-0.68359,-0.69271,-0.67796,-0.69021,-0.67426,-0.63665,-0.5643,-0.58004,-0.60287,-0.5841,-0.56833,-0.58328,-0.64722,-0.74335,-0.8284,-0.83282,-0.83356,-0.82465,-0.86429,-0.87162,-0.85974,-0.78358,-0.76891,-0.69142,-0.66298,-0.66903,-0.59479,-0.60725,-0.62876,-0.73576,-0.83009,-0.82744,-0.77069,-0.75339,-0.84404,-0.83573,-0.78514,-0.74552,-0.71957,-0.65634,-0.57068,-0.56386,-0.51102,-0.4545,-0.42694,-0.42148,-0.4665,-0.6838,-0.56072,-0.38356,-0.30455,-0.33162,-0.47745,-0.56743,-0.60421,-0.56511,-0.52495,-0.47683,-0.38137,-0.29083,-0.24846,-0.24565,-0.35248,-0.32783,-0.21206,-0.0019355,0.14458,0.19027,0.09188,-0.020167,-0.1117,-0.074155,-0.035912,0.060754,0.13487,0.22022,0.35779,0.38714,0.33557,0.23867,0.35006,0.53016,0.77441,0.97322,0.94041,0.81121,0.6712,0.5795,0.62112,0.71713,0.83496,1.0071,1.1478,1.2771,1.2476,1.1785,1.1032,1.1993,1.4689,1.6833,1.843,1.7894,1.6384,1.5179,1.4994,1.569,1.6815,1.7801,1.9716,2.1167,2.1531,2.1209,2.0773,2.0722,2.2558,2.4462,2.7034,2.7243,2.6184,2.4973,2.4746,2.775,2.1458,1.98,2.3814,3.6907,4.0305,3.8494,2.9936,2.775,2.7361,2.9184,0.62364,-0.22195,-0.23513,-0.41017,-0.41423,-0.15325,0.56475,1.4221,0.96972,-0.1099,-2.0173,-2.5813,-2.3784,-1.4285,-0.094361,-1.6812,-2.9566,-5.5671,-5.3657,-4.397,-2.2448,-1.6362,-1.2171,-1.1419,-1.7681,-2.1951,-2.063,-1.5065,-1.4337,-1.6215,-1.9649,-1.9887,-1.7777,-1.3044,-0.96842,-0.8833,-0.96367,-1.5033,-1.8028,-1.9102,-1.8735,-1.7255,-1.5366,-1.3359,-1.1391,-1.1625,-1.5243,-1.6759,-1.7743,-1.6703,-1.3146,-0.87023,-0.94464,-1.2268,-1.5008,-1.856,-1.9925,-1.8898,-1.7039,-1.5309,-1.3218,-1.2599,-1.674,-1.8136,-1.9636,-1.9549,-1.839,-1.6972,-1.6227,-1.8765,-2.1217,-2.2003,-2.131,-2.2299,-2.4854,-3.4061,-3.7921,-4.2352,-4.4771,-4.6167,-3.0895,-2.5676,-2.5295,-1.3844,-1.1633,-0.77151,-0.14663,2.5749,2.9225,3.188,3.3464,3.3642,3.1577,2.3597,2.3476,3.1004,3.4642,3.7752,3.583,3.57,2.7304,2.4242,2.315,2.297,2.5891,2.3925,2.3566,2.4953,2.4498,2.4661,2.3039,2.298,2.3627,2.2395,2.1734,2.2034,2.3666,2.6902,2.6895,2.5294,2.2478,1.916,1.75,1.6737,1.5712,1.5398,1.489,1.495,1.4598,1.3912,1.2714,1.3522,1.3267,1.4677,1.5512,1.3954,1.0652,0.72143,0.50874,0.42156,0.36887,0.3563,0.4811,0.5783,0.64548,0.6603,0.65163,0.4113,0.29986,0.24158,0.35434,0.36932,0.32172,0.096196,-0.13412,-0.26208,-0.34354,-0.36989,-0.36397,-0.29788,-0.23073,-0.21283,-0.2491,-0.39136,-0.51606,-0.53756,-0.52405,-0.48646,-0.50233,-0.64157,-0.81279,-0.99903,-1.0749,-1.0818,-1.0472,-0.91319,-0.79784,-0.69796,-0.72408,-0.83753,-0.95671,-1.1041,-1.0742,-0.92954,-0.76392,-0.76896,-0.87564,-1.0161,-1.1153,-1.1447,-1.1572,-1.1394,-1.0636,-0.97704,-0.91375,-0.91523,-0.98605,-0.999,-1.0233,-0.92223,-0.77265,-0.70239,-0.7972,-0.8964,-1.0728,-1.125,-1.0445,-0.99815,-0.89669,-0.81085,-0.72247,-0.69957,-0.70727,-0.80274,-0.81765,-0.80159,-0.74952,-0.61052,-0.60251,-0.64063,-0.75959,-0.78887,-0.76704,-0.73575,-0.67797,-0.57009,-0.51439,-0.39829,-0.38647,-0.39883,-0.47997,-0.46448,-0.42195,-0.2982,-0.21767,-0.19869,-0.27506,-0.33734,-0.30241,-0.3987,-0.43014,-0.37062,-0.2601,-0.1402,-0.032404,0.031356,0.015789,-0.047881,-0.04731,0.0049039,0.082065,0.097333,0.094216,0.08728,0.07713,0.065158,0.086665,0.12835,0.14908,0.21413,0.2474,0.30067,0.28032,0.26266,0.24257,0.2538,0.30094,0.427,0.44917,0.39295,0.38966,0.36193,0.36179,0.4165,0.41673,0.4581,0.50884,0.5242,0.52189,0.56171,0.57951,0.52873,0.5392,0.60576,0.66252,0.65875,0.59658,0.56314,0.47268,0.51125,0.52493,0.54417,0.60703,0.64138,0.63812,0.655,0.64875,0.66582,0.61531,0.61579,0.58594,0.61867,0.59721,0.60293,0.57786,0.56588,0.52689,0.49111,0.4949,0.50619,0.56131,0.54194,0.58266,0.53458,0.51468,0.53288,0.48213,0.46588,0.44211,0.41307,0.3871,0.36991,0.39583,0.34938,0.33768,0.32856,0.29086,0.29688,0.37579,0.33746,0.3616,0.3413,0.27947,0.28627,0.25316,0.22059,0.23109,0.21467,0.1678,0.15619,0.20828,0.1551,0.17094,0.12929,0.091441,0.092704,0.091013,0.11819,0.097871,0.098125,0.093387,0.052643,0.022757,-0.028132,-0.032114,-0.069284,-0.082285,-0.10405,-0.058824,-0.077935,-0.088417,-0.12683,-0.15583,-0.11903,-0.15624,-0.21366,-0.21587,-0.22957,-0.30006,-0.31663,-0.31341,-0.3039,-0.33938,-0.35263,-0.41165,-0.43447,-0.41447,-0.42158,-0.31259,-0.36989,-0.35681,-0.35587,-0.4142,-0.4562,-0.57325,-0.56137,-0.55732,-0.49827,-0.44069,-0.43535,-0.44629,-0.43196,-0.44935,-0.49359,-0.49541,-0.52052,-0.49747,-0.51096,-0.5059,-0.49215,-0.56927,-0.67553,-0.67958,-0.54353,-0.50482,-0.47634,-0.39864,-0.33264,-0.418,-0.49848,-0.54072,-0.53525,-0.47679,-0.4422,-0.37563,-0.36999,-0.39367,-0.4647,-0.48087,-0.39255,-0.37949,-0.33137,-0.33748,-0.36448,-0.36693,-0.409,-0.41404,-0.3781,-0.32945,-0.26223,-0.25691,-0.29828,-0.29583,-0.31994,-0.27208,-0.30558,-0.22978,-0.24448,-0.19394,-0.1653,-0.11851,-0.079941,-0.11767,-0.085079,-0.12215,-0.10745,-0.071497,0.0097412,0.038051,0.034034,-0.027517,-0.0056787,0.015376,0.1063,0.13241,0.17829,0.20126,0.17388,0.1773,0.17483,0.12962,0.12454,0.069509,0.13941,0.2173,0.27241,0.22247,0.16083,0.15752,0.19296,0.2537,0.27808,0.31328,0.29227,0.33519,0.36845,0.35812,0.33876,0.36249,0.33701,0.36994,0.40074,0.40444,0.38104,0.39463,0.43901,0.48308,0.54101,0.58561,0.60746,0.57853,0.57996,0.5716,0.58317,0.54874,0.45347,0.45926,0.48428,0.46746,0.41819,0.38673,0.4374,0.45439,0.57313,0.62063,0.64888,0.6216,0.62234,0.57993,0.48802,0.51324,0.46291,0.50525,0.54233,0.55723,0.484,0.45675,0.42144,0.37241,0.32561,0.36658,0.36293,0.41246,0.44975,0.55209,0.53747,0.53382,0.43261,0.33099,0.22469,0.22069,0.29484,0.31687,0.28049,0.21105,0.17134,0.1985,0.19981,0.28806,0.3267,0.28681,0.31588,0.28932,0.1934,0.074954,0.039199,0.0027061,-0.039515,-0.043918,-0.069093,-0.10703,-0.16246,-0.11981,-0.015899,0.046891,0.018856,-0.019424,-0.057786,-0.10043,-0.10666,-0.18319,-0.2389,-0.27306,-0.30295,-0.30728,-0.3169,-0.38133,-0.41092,-0.38019,-0.3933,-0.39694,-0.3399,-0.33363,-0.32905,-0.35958,-0.33458,-0.34985,-0.47601,-0.56998,-0.63024,-0.64791,-0.68359,-0.69271,-0.67796,-0.69021,-0.67426,-0.63665,-0.5643,-0.58004,-0.60287,-0.5841,-0.56833,-0.58328,-0.64722,-0.74335,-0.8284,-0.83282,-0.83356,-0.82465,-0.86429,-0.87162,-0.85974,-0.78358,-0.76891,-0.69142,-0.66298,-0.66903,-0.59479,-0.60725,-0.62876,-0.73576,-0.83009,-0.82744,-0.77069,-0.75339,-0.84404,-0.83573,-0.78514,-0.74552,-0.71957,-0.65634,-0.57068,-0.56386,-0.51102,-0.4545,-0.42694,-0.42148,-0.4665,-0.58868,-0.59521,-0.6222,-0.62416,-0.59425,-0.57036,-0.53138,-0.46446,-0.34619,-0.27258,-0.17598,-0.1494,-0.072743,-0.0027581,0.019762,-0.025941,-0.11296,-0.22065,-0.23609,-0.16545,-0.11703,-0.077361,-0.036876,0.026748,0.11655,0.21131,0.25546,0.32806,0.44912,0.54545,0.65466,0.62498,0.56111,0.47275,0.38464,0.39615,0.44868,0.54082,0.5508,0.64308,0.72719,0.86836,0.93209,1.0532,1.1014,1.1669,1.2713,1.3686,1.3504,1.2691,1.1856,1.1928,1.2263,1.288,1.3439,1.3938,1.3881,1.5202,1.6279,1.6879,1.8455,1.9387,2.0479,2.1073,2.178,2.095,2.0399,1.9694,1.9255,1.9718,2.1748,2.3353,2.2769,2.1009,1.7287,2.3973,2.5159,2.2359,1.1462,1.4249,1.4938,1.2815,2.2503,3.0596,4.2296,3.2705,2.5248,2.573,2.4768,2.8153,2.4205,0.20379,-1.9505,-2.8138,-2.7387,-4.076,-4.1357,-4.7479,-4.5499,-4.2523,-2.7288,-2.0494,-1.6021,-1.6392,-1.6486,-1.6959,-1.7335,-1.592,-1.0171,-0.48426,-0.56865,-0.68467,-1.2501,-1.4815,-1.7153,-1.558,-1.6122,-1.4292,-1.5018,-1.6023,-1.655,-1.6769,-1.5261,-1.3513,-1.0837,-1.0256,-1.2636,-1.1814,-1.1898,-1.3052,-1.2198,-1.2468,-1.1977,-1.3877,-1.4834,-1.4818,-1.5499,-1.5825,-1.563,-1.3903,-1.5134,-1.4368,-1.4789,-1.6613,-1.5527,-1.3883,-1.2781,-1.0535,-1.2738,-1.4643,-1.8002,-2.0569,-2.1916,-2.3448,-2.3701,-2.5736,-2.6656,-2.6647,-2.8962,-2.7388,-2.7195,-1.4336,-1.1407,-0.74456,-0.49464,-0.56946,-0.56341,-0.33447,0.49495,0.93776,1.1693,1.6662,2.2648,2.5653,2.564,2.7855,2.4281,1.9729,1.4213,1.4389,1.8063,1.6001,1.798,1.8472,1.9508,1.5791,1.7338,1.4461,0.78454,0.58512,0.37924,0.73937,1.6744,1.8654,2.0212,2.2558,2.5064,3.4573,3.1558,2.848,1.9788,0.99147,0.20006,0.46489,0.89021,0.97983,1.1495,1.2368,1.2711,1.2412,1.2896,1.3776,1.392,1.3727,1.3292,1.1577,1.0101,0.89973,0.84547,0.78877,0.76545,0.68873,0.63635,0.63084,0.61643,0.6562,0.63237,0.5466,0.53326,0.61367,0.57763,0.52189,0.39502,0.24255,0.17328,0.18689,0.21227,0.15667,0.11339,0.13747,0.074392,0.10854,0.16024,0.18555,0.14312,0.062541,0.024941,-0.058614,-0.21889,-0.28696,-0.36513,-0.36438,-0.32766,-0.36354,-0.34786,-0.38583,-0.45633,-0.46873,-0.52561,-0.49561,-0.42031,-0.41827,-0.46726,-0.51212,-0.52526,-0.60305,-0.67724,-0.75465,-0.75687,-0.74154,-0.77348,-0.79196,-0.74949,-0.77025,-0.69374,-0.62895,-0.6213,-0.60923,-0.53218,-0.58652,-0.60089,-0.68264,-0.73938,-0.74351,-0.71447,-0.69468,-0.67116,-0.66582,-0.6825,-0.74242,-0.75156,-0.77055,-0.692,-0.63728,-0.54862,-0.54919,-0.53924,-0.55653,-0.62703,-0.62154,-0.66726,-0.64973,-0.58157,-0.55712,-0.5544,-0.60703,-0.62449,-0.65987,-0.55792,-0.50636,-0.41168,-0.36438,-0.33978,-0.37624,-0.39264,-0.51623,-0.45138,-0.43511,-0.40294,-0.36939,-0.31388,-0.31635,-0.2967,-0.30999,-0.37484,-0.37539,-0.32096,-0.2311,-0.16016,-0.11421,-0.12203,-0.16838,-0.16679,-0.11174,-0.079613,-0.007397,0.019745,0.028719,-0.05466,-0.074455,-0.12195,-0.10863,-0.032671,0.018122,0.058046,0.10954,0.10309,0.055612,0.057213,0.041417,0.039195,0.11252,0.14203,0.15723,0.15458,0.17279,0.18652,0.14013,0.15558,0.15647,0.19593,0.21563,0.20914,0.19071,0.21968,0.20006,0.27323,0.31442,0.34642,0.36334,0.32778,0.34948,0.28665,0.22419,0.28787,0.3036,0.33424,0.32008,0.35287,0.29115,0.34097,0.3435,0.37596,0.42234,0.46141,0.48177,0.48374,0.47121,0.44646,0.41422,0.38665,0.37813,0.3915,0.41086,0.41253,0.38677,0.38581,0.32995,0.38353,0.42952,0.47871,0.50891,0.51465,0.50266,0.40675,0.37531,0.34036,0.31381,0.3796,0.38834,0.35639,0.3366,0.22081,0.2171,0.24612,0.20699,0.33487,0.38005,0.39731,0.35281,0.40417,0.37606,0.30617,0.272,0.24796,0.16812,0.16952,0.15821,0.12108,0.070235,0.00079557,-0.095051,-0.046169,0.084838,0.15387,0.26712,0.24887,0.25909,0.23029,0.16233,0.095938,0.076548,-0.0032196,-0.010541,-0.00032948,-0.012146,-0.023964,-0.076542,-0.046087,-0.022755,-0.0052218,0.054084,0.081965,0.094648,0.032882,0.044918,-0.016683,-0.075413,-0.088924,-0.096759,-0.11361,-0.15173,-0.16677,-0.2397,-0.23402,-0.18497,-0.12048,-0.039212,-0.066611,-0.083784,-0.14399,-0.19601,-0.24813,-0.2635,-0.27679,-0.24951,-0.2282,-0.2544,-0.26215,-0.30741,-0.32477,-0.29711,-0.23617,-0.17531,-0.18019,-0.21554,-0.23516,-0.25227,-0.22731,-0.19432,-0.16246,-0.13244,-0.21446,-0.23244,-0.26568,-0.30854,-0.33959,-0.33527,-0.35984,-0.29583,-0.31786,-0.2632,-0.23597,-0.25203,-0.22563,-0.25356,-0.24561,-0.24198,-0.24532,-0.25742,-0.24879,-0.28425,-0.28226,-0.29484,-0.27095,-0.25321,-0.15786,-0.12126,-0.11571,-0.09155,-0.17328,-0.19952,-0.18119,-0.23581,-0.19064,-0.12597,-0.14411,-0.20627,-0.23886,-0.29617,-0.28997,-0.25304,-0.19969,-0.26382,-0.27703,-0.24857,-0.22249,-0.21985,-0.23467,-0.23624,-0.17842,-0.13447,-0.1465,-0.13613,-0.16678,-0.19032,-0.19516,-0.17513,-0.20821,-0.12862,-0.10103,-0.097034,-0.034459,-0.0027538,0.013561,0.050248,0.018253,0.043587,0.079218,0.055875,0.023452,-0.0031352,0.022941,-0.0039244,0.02243,0.055524,0.081322,0.08899,0.11569,0.10301,0.070867,0.10267,0.1533,0.2684,0.28693,0.272,0.2038,0.16956,0.15258,0.18938,0.17524,0.19836,0.17933,0.21957,0.098328,0.04258,0.033566,0.088428,0.24612,0.2696,0.31173,0.24257,0.2108,0.16695,0.13739,0.097521,0.080764,0.10044,0.11067,0.10619,0.12083,0.094871,0.14624,0.14611,0.17961,0.24112,0.26756,0.29899,0.21426,0.16645,0.12002,0.13493,0.18416,0.31719,0.36159,0.31813,0.28914,0.25173,0.21696,0.19842,0.13837,0.18881,0.26155,0.32165,0.33619,0.26352,0.20501,0.16454,0.19951,0.26141,0.31939,0.27696,0.24142,0.19,0.066274,0.066415,0.094682,0.126,0.23073,0.27343,0.32305,0.35242,0.36709,0.30589,0.31519,0.11581,0.041863,0.052464,0.092658,0.032736,0.0010493,-0.091606,-0.085353,-0.041198,0.047178,0.094659,0.17426,0.17018,0.21126,0.14172,0.086274,0.08043,0.11533,0.14827,0.10356,0.047102,-0.034784,-0.076062,-0.12975,-0.11117,-0.083655,-0.046604,0.086291,0.12322,0.13257,0.076692,-0.07225,-0.074958,-0.055246,0.030015,0.054231,0.020903,-0.024988,-0.12198,-0.20173,-0.24681,-0.21447,-0.4545,-0.42694,-0.42148,-0.4665,-0.58868,-0.59521,-0.6222,-0.62416,-0.59425,-0.57036,-0.53138,-0.46446,-0.34619,-0.27258,-0.17598,-0.1494,-0.072743,-0.0027581,0.019762,-0.025941,-0.11296,-0.22065,-0.23609,-0.16545,-0.11703,-0.077361,-0.036876,0.026748,0.11655,0.21131,0.25546,0.32806,0.44912,0.54545,0.65466,0.62498,0.56111,0.47275,0.38464,0.39615,0.44868,0.54082,0.5508,0.64308,0.72719,0.86836,0.93209,1.0532,1.1014,1.1669,1.2713,1.3686,1.3504,1.2691,1.1856,1.1928,1.2263,1.288,1.3439,1.3938,1.3881,1.5202,1.6279,1.6879,1.8455,1.9387,2.0479,2.1073,2.178,2.095,2.0399,1.9694,1.9255,1.9718,2.1748,2.3353,2.2769,2.1009,1.7287,2.3973,2.5159,2.2359,1.1462,1.4249,1.4938,1.2815,2.2503,3.0596,4.2296,3.2705,2.5248,2.573,2.4768,2.8153,2.4205,0.20379,-1.9505,-2.8138,-2.7387,-4.076,-4.1357,-4.7479,-4.5499,-4.2523,-2.7288,-2.0494,-1.6021,-1.6392,-1.6486,-1.6959,-1.7335,-1.592,-1.0171,-0.48426,-0.56865,-0.68467,-1.2501,-1.4815,-1.7153,-1.558,-1.6122,-1.4292,-1.5018,-1.6023,-1.655,-1.6769,-1.5261,-1.3513,-1.0837,-1.0256,-1.2636,-1.1814,-1.1898,-1.3052,-1.2198,-1.2468,-1.1977,-1.3877,-1.4834,-1.4818,-1.5499,-1.5825,-1.563,-1.3903,-1.5134,-1.4368,-1.4789,-1.6613,-1.5527,-1.3883,-1.2781,-1.0535,-1.2738,-1.4643,-1.8002,-2.0569,-2.1916,-2.3448,-2.3701,-2.5736,-2.6656,-2.6647,-2.8962,-2.7388,-2.7195,-1.4336,-1.1407,-0.74456,-0.49464,-0.56946,-0.56341,-0.33447,0.49495,0.93776,1.1693,1.6662,2.2648,2.5653,2.564,2.7855,2.4281,1.9729,1.4213,1.4389,1.8063,1.6001,1.798,1.8472,1.9508,1.5791,1.7338,1.4461,0.78454,0.58512,0.37924,0.73937,1.6744,1.8654,2.0212,2.2558,2.5064,3.4573,3.1558,2.848,1.9788,0.99147,0.20006,0.46489,0.89021,0.97983,1.1495,1.2368,1.2711,1.2412,1.2896,1.3776,1.392,1.3727,1.3292,1.1577,1.0101,0.89973,0.84547,0.78877,0.76545,0.68873,0.63635,0.63084,0.61643,0.6562,0.63237,0.5466,0.53326,0.61367,0.57763,0.52189,0.39502,0.24255,0.17328,0.18689,0.21227,0.15667,0.11339,0.13747,0.074392,0.10854,0.16024,0.18555,0.14312,0.062541,0.024941,-0.058614,-0.21889,-0.28696,-0.36513,-0.36438,-0.32766,-0.36354,-0.34786,-0.38583,-0.45633,-0.46873,-0.52561,-0.49561,-0.42031,-0.41827,-0.46726,-0.51212,-0.52526,-0.60305,-0.67724,-0.75465,-0.75687,-0.74154,-0.77348,-0.79196,-0.74949,-0.77025,-0.69374,-0.62895,-0.6213,-0.60923,-0.53218,-0.58652,-0.60089,-0.68264,-0.73938,-0.74351,-0.71447,-0.69468,-0.67116,-0.66582,-0.6825,-0.74242,-0.75156,-0.77055,-0.692,-0.63728,-0.54862,-0.54919,-0.53924,-0.55653,-0.62703,-0.62154,-0.66726,-0.64973,-0.58157,-0.55712,-0.5544,-0.60703,-0.62449,-0.65987,-0.55792,-0.50636,-0.41168,-0.36438,-0.33978,-0.37624,-0.39264,-0.51623,-0.45138,-0.43511,-0.40294,-0.36939,-0.31388,-0.31635,-0.2967,-0.30999,-0.37484,-0.37539,-0.32096,-0.2311,-0.16016,-0.11421,-0.12203,-0.16838,-0.16679,-0.11174,-0.079613,-0.007397,0.019745,0.028719,-0.05466,-0.074455,-0.12195,-0.10863,-0.032671,0.018122,0.058046,0.10954,0.10309,0.055612,0.057213,0.041417,0.039195,0.11252,0.14203,0.15723,0.15458,0.17279,0.18652,0.14013,0.15558,0.15647,0.19593,0.21563,0.20914,0.19071,0.21968,0.20006,0.27323,0.31442,0.34642,0.36334,0.32778,0.34948,0.28665,0.22419,0.28787,0.3036,0.33424,0.32008,0.35287,0.29115,0.34097,0.3435,0.37596,0.42234,0.46141,0.48177,0.48374,0.47121,0.44646,0.41422,0.38665,0.37813,0.3915,0.41086,0.41253,0.38677,0.38581,0.32995,0.38353,0.42952,0.47871,0.50891,0.51465,0.50266,0.40675,0.37531,0.34036,0.31381,0.3796,0.38834,0.35639,0.3366,0.22081,0.2171,0.24612,0.20699,0.33487,0.38005,0.39731,0.35281,0.40417,0.37606,0.30617,0.272,0.24796,0.16812,0.16952,0.15821,0.12108,0.070235,0.00079557,-0.095051,-0.046169,0.084838,0.15387,0.26712,0.24887,0.25909,0.23029,0.16233,0.095938,0.076548,-0.0032196,-0.010541,-0.00032948,-0.012146,-0.023964,-0.076542,-0.046087,-0.022755,-0.0052218,0.054084,0.081965,0.094648,0.032882,0.044918,-0.016683,-0.075413,-0.088924,-0.096759,-0.11361,-0.15173,-0.16677,-0.2397,-0.23402,-0.18497,-0.12048,-0.039212,-0.066611,-0.083784,-0.14399,-0.19601,-0.24813,-0.2635,-0.27679,-0.24951,-0.2282,-0.2544,-0.26215,-0.30741,-0.32477,-0.29711,-0.23617,-0.17531,-0.18019,-0.21554,-0.23516,-0.25227,-0.22731,-0.19432,-0.16246,-0.13244,-0.21446,-0.23244,-0.26568,-0.30854,-0.33959,-0.33527,-0.35984,-0.29583,-0.31786,-0.2632,-0.23597,-0.25203,-0.22563,-0.25356,-0.24561,-0.24198,-0.24532,-0.25742,-0.24879,-0.28425,-0.28226,-0.29484,-0.27095,-0.25321,-0.15786,-0.12126,-0.11571,-0.09155,-0.17328,-0.19952,-0.18119,-0.23581,-0.19064,-0.12597,-0.14411,-0.20627,-0.23886,-0.29617,-0.28997,-0.25304,-0.19969,-0.26382,-0.27703,-0.24857,-0.22249,-0.21985,-0.23467,-0.23624,-0.17842,-0.13447,-0.1465,-0.13613,-0.16678,-0.19032,-0.19516,-0.17513,-0.20821,-0.12862,-0.10103,-0.097034,-0.034459,-0.0027538,0.013561,0.050248,0.018253,0.043587,0.079218,0.055875,0.023452,-0.0031352,0.022941,-0.0039244,0.02243,0.055524,0.081322,0.08899,0.11569,0.10301,0.070867,0.10267,0.1533,0.2684,0.28693,0.272,0.2038,0.16956,0.15258,0.18938,0.17524,0.19836,0.17933,0.21957,0.098328,0.04258,0.033566,0.088428,0.24612,0.2696,0.31173,0.24257,0.2108,0.16695,0.13739,0.097521,0.080764,0.10044,0.11067,0.10619,0.12083,0.094871,0.14624,0.14611,0.17961,0.24112,0.26756,0.29899,0.21426,0.16645,0.12002,0.13493,0.18416,0.31719,0.36159,0.31813,0.28914,0.25173,0.21696,0.19842,0.13837,0.18881,0.26155,0.32165,0.33619,0.26352,0.20501,0.16454,0.19951,0.26141,0.31939,0.27696,0.24142,0.19,0.066274,0.066415,0.094682,0.126,0.23073,0.27343,0.32305,0.35242,0.36709,0.30589,0.31519,0.11581,0.041863,0.052464,0.092658,0.032736,0.0010493,-0.091606,-0.085353,-0.041198,0.047178,0.094659,0.17426,0.17018,0.21126,0.14172,0.086274,0.08043,0.11533,0.14827,0.10356,0.047102,-0.034784,-0.076062,-0.12975,-0.11117,-0.083655,-0.046604,0.086291,0.12322,0.13257,0.076692,-0.07225,-0.074958,-0.055246,0.030015,0.054231,0.020903,-0.024988,-0.12198,-0.20173,-0.24681,-0.21447,-0.3419,-0.21018,-0.070182,0.061845,0.044467,-0.066401,-0.13726,-0.11498,-0.10735,-0.127,-0.12103,-0.14567,-0.24941,-0.3177,-0.39277,-0.42319,-0.4366,-0.35796,-0.28016,-0.14243,-0.10708,-0.11628,-0.2374,-0.25516,-0.20247,-0.1382,-0.12599,-0.14421,-0.23182,-0.35065,-0.45625,-0.52097,-0.46235,-0.48092,-0.41134,-0.24854,-0.12435,-0.15707,-0.22871,-0.31266,-0.30338,-0.29202,-0.21548,-0.14371,-0.11847,-0.19003,-0.70926,-1.1303,-1.3593,-1.5613,-1.0868,0.3288,0.02342,-0.48978,0.1582,-0.82592,-1.0747,-0.8873,0.22503,0.73256,1.1013,1.2794,1.2368,1.8753,2.082,1.7333,1.0874,0.49873,-0.7304,-1.235,-1.8156,-1.5113,-0.94618,0.052992,-0.051325,-1.1181,-1.5295,-1.3349,-0.8177,-0.32422,0.60993,0.79963,0.61424,0.45923,0.4375,0.32492,0.13226,0.52489,0.66221,0.6128,0.49227,0.52022,0.68047,0.60665,0.30857,0.086556,-0.18024,-0.097196,-0.032166,0.058421,0.22515,0.19255,0.2594,0.32328,0.35698,0.25974,0.22744,0.27776,0.40051,0.44545,0.42232,0.34781,0.22631,-0.0023736,-0.22748,-0.21656,-0.13218,0.058502,0.25227,0.37375,0.36134,0.073505,-0.095681,-0.17416,-0.16301,-0.069581,-0.044435,-0.026696,-0.33218,-0.41366,-0.41094,-0.36323,-0.36474,-0.22012,-0.19565,-0.30182,-0.32141,-0.26226,0.18671,0.17356,0.16284,0.26378,0.27662,-0.014567,-0.12463,0.24591,0.57294,1.0641,1.8098,2.0831,1.5295,0.83745,-0.58149,-0.4606,-0.14374,1.1308,1.2879,0.94008,-0.27907,-0.57142,-0.41368,-0.32248,-0.19652,-0.22171,-0.2951,-0.35949,-0.38819,-0.31294,-0.16941,-0.2071,-0.16,-0.12982,-0.18679,-0.15404,-0.038918,0.076158,0.12718,0.079621,-0.057112,-0.2129,-0.22723,-0.17803,-0.046515,0.016017,0.038157,0.029983,-0.0033073,-0.069198,-0.1284,-0.10371,0.14101,0.34411,0.41576,0.37505,0.059363,-0.073531,-0.11621,-0.18793,-0.30535,-0.33506,-0.28895,-0.11701,0.0757,0.11128,0.083596,-0.085325,-0.10939,-0.094474,0.0016191,0.057005,0.10486,0.073704,-0.050147,-0.11398,-0.17544,-0.24618,-0.21955,-0.15787,-0.027542,0.0987,0.096643,0.016622,-0.073687,-0.14647,-0.11702,-0.060451,-0.023129,-0.059339,-0.12338,-0.16648,-0.22,-0.30472,-0.32416,-0.27908,-0.20928,-0.057981,-0.0029855,-0.036732,-0.054781,-0.12767,-0.14208,-0.070298,-0.06235,-0.03998,-0.079383,-0.098242,-0.16335,-0.2094,-0.21976,-0.22418,-0.16411,-0.058023,0.033782,0.090861,0.070902,-0.050185,-0.10335,-0.1023,-0.068896,-0.037644,-0.023692,-0.058714,-0.06641,-0.090484,-0.13204,-0.13072,-0.15751,-0.087495,0.010303,0.11075,0.13726,0.068242,-0.042393,-0.11332,-0.13715,-0.11111,-0.090589,-0.044541,-0.033261,-0.030723,-0.050978,-0.09055,-0.08093,-0.058486,0.015361,0.097117,0.094656,0.060713,-0.010769,-0.10239,-0.12177,-0.11161,-0.09489,-0.047288,0.0082136,0.1039,0.14941,0.092333,0.05376,-0.0011176,0.030696,0.10117,0.12538,0.13247,0.084514,0.055764,0.012878,0.0022653,0.0082689,0.053522,0.068426,0.096634,0.091819,0.1022,0.079003,0.042872,0.03338,0.034023,0.13146,0.16941,0.19203,0.1028,0.048424,0.018104,0.0094924,0.0084553,0.049319,-0.072133,0.036503,0.074056,0.081909,0.12822,0.059264,0.057468,0.021568,0.067736,0.12018,0.093037,0.080151,0.03835,-0.021113,-0.069716,-0.077076,-0.034259,-0.039022,0.010205,0.015025,-0.020379,-0.013727,-0.0082093,0.068957,0.13769,0.16664,0.12812,0.095456,0.054442,0.023503,0.039317,-0.014553,-0.060872,-0.047347,-0.0037007,0.05151,0.08512,0.1155,0.08438,0.09786,0.06631,0.052074,0.064747,0.015936,-0.01396,-0.0081261,0.0038963,-0.091715,-0.07664,-0.046708,-0.058487,0.031514,0.086869,0.11232,0.062608,0.031369,0.047827,0.050094,0.02516,0.063022,0.048161,-0.011083,-0.033276,-0.019364,-0.045469,-0.030803,-0.066077,-0.030212,0.028376,0.07866,0.094733,0.076373,0.04604,-0.0097131,-0.012793,0.062361,0.058656,0.047694,0.033589,-0.020147,-0.00808,-0.073324,-0.018105,0.063104,0.071516,0.12961,0.17098,0.14514,0.087266,0.021498,-0.035636,-0.0083969,0.060915,0.058179,0.054985,0.081295,0.065417,-0.031157,-0.096167,-0.070032,-0.048219,0.03689,0.016454,0.15378,0.15456,0.099684,0.034249,0.010332,0.032341,-0.0089891,-0.0061777,-0.0011943,-0.0034981,0.016017,-0.012126,-0.072119,-0.036455,-0.081103,-0.071418,-0.028474,0.030474,0.10049,0.078334,-0.024985,-0.016202,-0.032333,-0.06914,-0.021076,-0.046054,-0.047996,-0.10367,-0.12977,-0.14478,-0.099874,-0.069643,-0.030884,-0.035445,0.015953,0.04713,0.024013,-0.0089684,-0.11158,-0.12464,-0.15284,-0.096032,-0.0812,-0.048039,-0.030593,-0.050418,-0.056053,-0.043028,-0.05419,-0.063089,-0.041226,-0.067501,-0.074259,-0.062771,-0.061188,-0.088703,-0.093446,-0.074757,-0.048562,-0.070992,-0.11293,-0.092234,-0.030165,-0.028313,-0.0531,-0.037909,-0.022109,-0.043464,-0.07129,-0.0059576,0.0031152,-0.068974,-0.091121,-0.1217,-0.093656,-0.028263,-0.016213,-0.021314,0.0060558,-0.032548,-0.06488,-0.061107,-0.059022,-0.089482,-0.040901,-0.032115,-0.0046509,0.038757,0.005527,-0.04377,-0.062896,-0.065257,-0.037592,-0.027962,-0.065733,-0.028652,0.012733,0.086101,0.040063,-0.04459,-0.081567,-0.069436,-0.093171,-0.035232,-0.029141,-0.019871,-0.057329,-0.066493,-0.066639,-0.041684,0.0051347,0.011823,0.021637,0.063294,0.015478,-0.010463,-0.032513,-0.034023,-0.019279,-0.010599,-0.024725,-0.01732,0.037413,0.011904,0.0094108,0.0083905,0.067786,0.08248,0.098947,0.15088,0.11287,0.084633,0.042759,0.014707,-0.020456,-0.0022241,-0.030854,-0.046817,-0.10494,-0.11296,-0.09212,-0.055094,0.010922,0.03432,0.093068,0.11853,0.13357,0.11795,0.069873,-0.021381,-0.013519,0.030254,0.051985,0.058741,0.006568,-0.012044,-0.046218,0.017239,0.016756,0.047459,0.11107,0.1064,0.1372,0.14414,0.10884,0.041716,0.015987,-0.0084337,-0.03085,-0.006971,-0.00094862,-0.013814,0.012382,0.0229,0.051828,0.12122,0.078867,0.11344,0.19091,0.22105,0.21218,0.11738,0.070666,0.0069422,-0.0093933,0.011958,0.0011292,0.043717,-0.0016703,-0.0049136,0.0098598,0.037475,0.068363,0.1395,0.18376,0.23015,0.25147,0.22055,0.13937,0.045731,-0.013678,-0.019622,0.0084242,0.035317,0.042473,0.037993,0.0034272,0.055634,0.080606,0.075189,0.11705,0.20674,0.21591,0.22058,0.16407,0.063318,-0.03401,-0.047733,-0.078975,-0.045467,0.018877,0.027769,0.027119,0.03128,0.045354,0.068433,0.1034,0.19117,0.21368,0.18171,0.12705,0.081285,-0.00071273,-0.058844,-0.096631,-0.080545,-0.11202,-0.050675,-0.040363,-0.038896,0.0015251,0.049611,0.072934,0.041905,0.070074,0.13061,0.1535,0.10904,0.035857,-0.05103,-0.10148,-0.12508,-0.098566,-0.12979,-0.13324,-0.089507,-0.088716,-0.051398,-0.0054957,-0.014245,0.038883,0.1091,0.12872,0.13024,0.057378,-0.031946,-0.15748,-0.23254,-0.24101,-0.20418,-0.1945,-0.1641,-0.11813,-0.12156,-0.12547,-0.15201,-0.11492,-0.048308,0.063934,0.14827,0.10356,0.047102,-0.034784,-0.076062,-0.12975,-0.11117,-0.083655,-0.046604,0.086291,0.12322,0.13257,0.076692,-0.07225,-0.074958,-0.055246,0.030015,0.054231,0.020903,-0.024988,-0.12198,-0.20173,-0.24681,-0.21447,-0.3419,-0.21018,-0.070182,0.061845,0.044467,-0.066401,-0.13726,-0.11498,-0.10735,-0.127,-0.12103,-0.14567,-0.24941,-0.3177,-0.39277,-0.42319,-0.4366,-0.35796,-0.28016,-0.14243,-0.10708,-0.11628,-0.2374,-0.25516,-0.20247,-0.1382,-0.12599,-0.14421,-0.23182,-0.35065,-0.45625,-0.52097,-0.46235,-0.48092,-0.41134,-0.24854,-0.12435,-0.15707,-0.22871,-0.31266,-0.30338,-0.29202,-0.21548,-0.14371,-0.11847,-0.19003,-0.70926,-1.1303,-1.3593,-1.5613,-1.0868,0.3288,0.02342,-0.48978,0.1582,-0.82592,-1.0747,-0.8873,0.22503,0.73256,1.1013,1.2794,1.2368,1.8753,2.082,1.7333,1.0874,0.49873,-0.7304,-1.235,-1.8156,-1.5113,-0.94618,0.052992,-0.051325,-1.1181,-1.5295,-1.3349,-0.8177,-0.32422,0.60993,0.79963,0.61424,0.45923,0.4375,0.32492,0.13226,0.52489,0.66221,0.6128,0.49227,0.52022,0.68047,0.60665,0.30857,0.086556,-0.18024,-0.097196,-0.032166,0.058421,0.22515,0.19255,0.2594,0.32328,0.35698,0.25974,0.22744,0.27776,0.40051,0.44545,0.42232,0.34781,0.22631,-0.0023736,-0.22748,-0.21656,-0.13218,0.058502,0.25227,0.37375,0.36134,0.073505,-0.095681,-0.17416,-0.16301,-0.069581,-0.044435,-0.026696,-0.33218,-0.41366,-0.41094,-0.36323,-0.36474,-0.22012,-0.19565,-0.30182,-0.32141,-0.26226,0.18671,0.17356,0.16284,0.26378,0.27662,-0.014567,-0.12463,0.24591,0.57294,1.0641,1.8098,2.0831,1.5295,0.83745,-0.58149,-0.4606,-0.14374,1.1308,1.2879,0.94008,-0.27907,-0.57142,-0.41368,-0.32248,-0.19652,-0.22171,-0.2951,-0.35949,-0.38819,-0.31294,-0.16941,-0.2071,-0.16,-0.12982,-0.18679,-0.15404,-0.038918,0.076158,0.12718,0.079621,-0.057112,-0.2129,-0.22723,-0.17803,-0.046515,0.016017,0.038157,0.029983,-0.0033073,-0.069198,-0.1284,-0.10371,0.14101,0.34411,0.41576,0.37505,0.059363,-0.073531,-0.11621,-0.18793,-0.30535,-0.33506,-0.28895,-0.11701,0.0757,0.11128,0.083596,-0.085325,-0.10939,-0.094474,0.0016191,0.057005,0.10486,0.073704,-0.050147,-0.11398,-0.17544,-0.24618,-0.21955,-0.15787,-0.027542,0.0987,0.096643,0.016622,-0.073687,-0.14647,-0.11702,-0.060451,-0.023129,-0.059339,-0.12338,-0.16648,-0.22,-0.30472,-0.32416,-0.27908,-0.20928,-0.057981,-0.0029855,-0.036732,-0.054781,-0.12767,-0.14208,-0.070298,-0.06235,-0.03998,-0.079383,-0.098242,-0.16335,-0.2094,-0.21976,-0.22418,-0.16411,-0.058023,0.033782,0.090861,0.070902,-0.050185,-0.10335,-0.1023,-0.068896,-0.037644,-0.023692,-0.058714,-0.06641,-0.090484,-0.13204,-0.13072,-0.15751,-0.087495,0.010303,0.11075,0.13726,0.068242,-0.042393,-0.11332,-0.13715,-0.11111,-0.090589,-0.044541,-0.033261,-0.030723,-0.050978,-0.09055,-0.08093,-0.058486,0.015361,0.097117,0.094656,0.060713,-0.010769,-0.10239,-0.12177,-0.11161,-0.09489,-0.047288,0.0082136,0.1039,0.14941,0.092333,0.05376,-0.0011176,0.030696,0.10117,0.12538,0.13247,0.084514,0.055764,0.012878,0.0022653,0.0082689,0.053522,0.068426,0.096634,0.091819,0.1022,0.079003,0.042872,0.03338,0.034023,0.13146,0.16941,0.19203,0.1028,0.048424,0.018104,0.0094924,0.0084553,0.049319,-0.072133,0.036503,0.074056,0.081909,0.12822,0.059264,0.057468,0.021568,0.067736,0.12018,0.093037,0.080151,0.03835,-0.021113,-0.069716,-0.077076,-0.034259,-0.039022,0.010205,0.015025,-0.020379,-0.013727,-0.0082093,0.068957,0.13769,0.16664,0.12812,0.095456,0.054442,0.023503,0.039317,-0.014553,-0.060872,-0.047347,-0.0037007,0.05151,0.08512,0.1155,0.08438,0.09786,0.06631,0.052074,0.064747,0.015936,-0.01396,-0.0081261,0.0038963,-0.091715,-0.07664,-0.046708,-0.058487,0.031514,0.086869,0.11232,0.062608,0.031369,0.047827,0.050094,0.02516,0.063022,0.048161,-0.011083,-0.033276,-0.019364,-0.045469,-0.030803,-0.066077,-0.030212,0.028376,0.07866,0.094733,0.076373,0.04604,-0.0097131,-0.012793,0.062361,0.058656,0.047694,0.033589,-0.020147,-0.00808,-0.073324,-0.018105,0.063104,0.071516,0.12961,0.17098,0.14514,0.087266,0.021498,-0.035636,-0.0083969,0.060915,0.058179,0.054985,0.081295,0.065417,-0.031157,-0.096167,-0.070032,-0.048219,0.03689,0.016454,0.15378,0.15456,0.099684,0.034249,0.010332,0.032341,-0.0089891,-0.0061777,-0.0011943,-0.0034981,0.016017,-0.012126,-0.072119,-0.036455,-0.081103,-0.071418,-0.028474,0.030474,0.10049,0.078334,-0.024985,-0.016202,-0.032333,-0.06914,-0.021076,-0.046054,-0.047996,-0.10367,-0.12977,-0.14478,-0.099874,-0.069643,-0.030884,-0.035445,0.015953,0.04713,0.024013,-0.0089684,-0.11158,-0.12464,-0.15284,-0.096032,-0.0812,-0.048039,-0.030593,-0.050418,-0.056053,-0.043028,-0.05419,-0.063089,-0.041226,-0.067501,-0.074259,-0.062771,-0.061188,-0.088703,-0.093446,-0.074757,-0.048562,-0.070992,-0.11293,-0.092234,-0.030165,-0.028313,-0.0531,-0.037909,-0.022109,-0.043464,-0.07129,-0.0059576,0.0031152,-0.068974,-0.091121,-0.1217,-0.093656,-0.028263,-0.016213,-0.021314,0.0060558,-0.032548,-0.06488,-0.061107,-0.059022,-0.089482,-0.040901,-0.032115,-0.0046509,0.038757,0.005527,-0.04377,-0.062896,-0.065257,-0.037592,-0.027962,-0.065733,-0.028652,0.012733,0.086101,0.040063,-0.04459,-0.081567,-0.069436,-0.093171,-0.035232,-0.029141,-0.019871,-0.057329,-0.066493,-0.066639,-0.041684,0.0051347,0.011823,0.021637,0.063294,0.015478,-0.010463,-0.032513,-0.034023,-0.019279,-0.010599,-0.024725,-0.01732,0.037413,0.011904,0.0094108,0.0083905,0.067786,0.08248,0.098947,0.15088,0.11287,0.084633,0.042759,0.014707,-0.020456,-0.0022241,-0.030854,-0.046817,-0.10494,-0.11296,-0.09212,-0.055094,0.010922,0.03432,0.093068,0.11853,0.13357,0.11795,0.069873,-0.021381,-0.013519,0.030254,0.051985,0.058741,0.006568,-0.012044,-0.046218,0.017239,0.016756,0.047459,0.11107,0.1064,0.1372,0.14414,0.10884,0.041716,0.015987,-0.0084337,-0.03085,-0.006971,-0.00094862,-0.013814,0.012382,0.0229,0.051828,0.12122,0.078867,0.11344,0.19091,0.22105,0.21218,0.11738,0.070666,0.0069422,-0.0093933,0.011958,0.0011292,0.043717,-0.0016703,-0.0049136,0.0098598,0.037475,0.068363,0.1395,0.18376,0.23015,0.25147,0.22055,0.13937,0.045731,-0.013678,-0.019622,0.0084242,0.035317,0.042473,0.037993,0.0034272,0.055634,0.080606,0.075189,0.11705,0.20674,0.21591,0.22058,0.16407,0.063318,-0.03401,-0.047733,-0.078975,-0.045467,0.018877,0.027769,0.027119,0.03128,0.045354,0.068433,0.1034,0.19117,0.21368,0.18171,0.12705,0.081285,-0.00071273,-0.058844,-0.096631,-0.080545,-0.11202,-0.050675,-0.040363,-0.038896,0.0015251,0.049611,0.072934,0.041905,0.070074,0.13061,0.1535,0.10904,0.035857,-0.05103,-0.10148,-0.12508,-0.098566,-0.12979,-0.13324,-0.089507,-0.088716,-0.051398,-0.0054957,-0.014245,0.038883,0.1091,0.12872,0.13024,0.057378,-0.031946,-0.15748,-0.23254,-0.24101,-0.20418,-0.1945,-0.1641,-0.11813,-0.12156,-0.12547,-0.15201,-0.11492,-0.048308,0.063934,0.10829,0.11984,-0.053107,-0.19222,-0.3129,-0.37209,-0.32793,-0.2808,-0.19427,-0.20151,-0.23388,-0.24458,-0.25186,-0.23583,-0.18439,-0.069049,0.041005,0.065183,-0.024568,-0.21455,-0.39316,-0.46486,-0.50562,-0.41298,-0.3565,-0.26749,-0.24282,-0.24865,-0.34127,-0.34825,-0.28351,-0.17973,-0.095616,-0.035465,-0.11017,-0.219,-0.34656,-0.55156,-0.6773,-0.76836,-0.66114,-0.63314,-0.22474,-0.31749,-0.65994,-1.187,-1.0446,-1.0362,-0.45996,-0.56407,-0.74398,-0.51807,0.82704,1.6399,2.7476,3.0031,3.0733,2.9754,2.2543,1.328,1.0404,0.90932,0.63983,0.5885,0.32164,-0.67571,-2.0116,-2.5041,-2.6205,-1.5718,-1.0481,-0.61417,-0.55535,-0.64928,-0.47517,-0.22324,0.39067,0.67124,0.82225,0.98912,0.98511,0.95317,0.85787,0.76755,0.68642,0.54077,0.2119,0.086331,-0.042597,-0.035156,-0.10583,-0.16897,-0.022833,0.36465,0.45443,0.53088,0.49916,0.44273,0.46216,0.47194,0.50781,0.44115,0.31535,0.051525,-0.13382,-0.063762,0.0015566,0.13362,0.11327,0.10272,0.076577,0.15646,0.23678,0.25667,0.22326,0.24414,0.17153,-0.1722,-0.25664,-0.35054,-0.35732,-0.20334,-0.0013246,-0.09386,-0.02288,0.09615,0.14266,0.098433,-0.0075445,-0.45472,-0.59721,-0.62364,-0.24449,0.20624,0.81148,0.90179,0.84129,0.73749,0.8711,0.48447,0.44807,-0.014545,-1.0205,-0.81337,-0.4354,0.68181,0.25461,-0.47677,-0.85954,-0.8206,-0.53542,-0.33896,-0.080694,-0.13366,-0.15359,-0.14955,-0.1218,-0.10514,-0.058022,-0.10157,-0.16702,-0.23736,-0.2964,-0.34547,-0.23429,-0.11036,-0.020837,0.022121,-0.015513,-0.04645,-0.13047,-0.21208,-0.26056,-0.24859,-0.21598,-0.1687,-0.15631,-0.20584,-0.28203,-0.29358,-0.14173,-0.05701,-0.013405,0.05236,0.004938,-0.0097703,-0.077184,-0.11875,-0.25762,-0.28747,-0.25619,-0.21547,-0.14187,-0.11773,-0.075963,-0.03837,-0.031449,-0.0065128,0.039931,0.098317,0.076609,0.04768,0.028469,-0.06981,-0.14065,-0.19592,-0.17315,-0.089739,-0.012566,0.043723,0.0094945,-0.05999,-0.085383,-0.060002,0.080043,0.15444,0.22907,0.18491,0.077182,-0.012388,-0.073879,-0.13557,-0.10594,-0.098255,-0.075118,0.026829,0.029515,0.046756,-0.023677,-0.034205,0.0067137,0.078529,0.13752,0.15491,0.13325,0.09105,0.0403,-0.015858,-0.034845,-0.091895,-0.06955,-0.010718,0.0083439,0.022702,-0.0050041,-0.036742,0.0058287,0.020952,0.050348,0.19647,0.19541,0.23743,0.1583,0.074602,-0.0081403,-0.08507,-0.057428,-0.023942,0.064952,0.14018,0.099619,0.06648,0.08211,0.067444,0.090946,0.17767,0.1648,0.14779,0.1118,0.10494,0.10042,0.022902,-0.03751,-0.032673,0.039216,0.053734,0.074264,0.056452,0.024943,0.01821,0.015865,0.070258,0.14467,0.10936,0.081625,0.08155,0.046937,0.045987,-0.017789,-0.068662,-0.053006,-0.013787,0.05728,0.024617,-0.00046754,-0.0242,0.02016,0.061241,0.10746,0.12767,0.11352,0.043797,-0.026314,-0.017923,-0.043166,-0.062626,-0.028009,0.027104,0.060928,0.04799,0.0026566,-0.022687,-0.03501,-0.01553,0.025647,0.095541,0.099161,0.10782,0.04165,0.014149,-0.042206,-0.058024,-0.066686,-0.023334,-0.00029743,-0.012186,0.031157,0.016024,-0.040109,-0.003957,-0.014295,0.05734,0.03917,0.06527,0.036185,0.03992,0.0212,0.047337,0.0046665,0.0046773,-0.017116,0.0018427,0.048515,0.045874,0.0668,0.019669,-0.0035277,0.056406,0.04854,0.052242,0.10168,0.072521,0.01396,0.041171,-0.028871,-0.026198,-0.020027,-0.045646,-0.034345,-0.030943,-0.038775,-0.013376,-0.050377,0.0020002,0.057765,0.037193,-0.0083603,-0.03345,-0.095217,-0.035075,-0.033783,-0.025088,-0.051956,-0.043784,0.031593,0.00069077,-0.0035735,-0.011395,-0.051479,-0.044175,-0.027813,0.022883,0.022846,0.0056862,-0.019293,-0.074122,-0.076809,-0.028831,-0.011982,0.0011265,-0.030358,-0.033043,-0.040152,-0.047302,-0.049891,-0.0449,-0.033513,-0.058503,-0.019035,-0.029442,-0.013698,-0.034299,-0.043235,-0.071654,-0.051062,-0.029226,-0.017262,-0.019539,0.0046169,-0.044804,-0.05002,-0.044783,0.003512,0.01441,0.050108,0.0088408,-0.045488,-0.10229,-0.11536,-0.113,-0.020874,0.0072123,0.03006,0.068643,0.023139,0.0023752,-0.048133,-0.046924,-0.033561,-0.019187,-0.050712,-0.058707,-0.039641,-0.13236,-0.074126,-0.040373,-0.026759,-0.035305,-0.0405,-0.021768,-0.025976,-0.012678,-0.037903,0.021461,-0.0012374,0.018209,0.030538,0.026239,-0.028599,-0.087714,-0.10522,-0.075172,-0.066821,-0.0061275,-0.0078599,-0.013227,0.033963,0.017597,0.02171,-0.0040301,-0.042803,-0.060291,-0.038413,0.004047,-0.010775,-0.036713,-0.023281,-0.070906,-0.10365,-0.084295,-0.050975,-0.01255,0.013977,0.049286,0.056428,0.018181,-0.0028711,0.0055428,-0.0044828,0.0152,-0.025534,-0.051172,-0.08137,-0.063653,-0.028182,-0.012335,0.01788,0.057737,0.095134,0.14467,0.12878,0.088054,-0.020469,-0.032392,-0.049167,-0.01866,-0.0051754,-0.020841,-0.018247,-0.048406,-0.022891,-0.01204,0.015861,0.018625,0.024551,0.091846,0.057877,0.027037,0.015978,-0.017984,0.01913,0.012115,0.042136,0.08214,0.018249,-0.057616,-0.08404,-0.084292,-0.09669,-0.020649,0.13078,0.17113,0.1578,0.14381,0.026923,-0.059325,-0.084156,-0.070613,0.0017026,0.099749,0.091188,0.08644,0.013122,-0.041179,-0.027648,0.0096473,0.057512,0.14026,0.17241,0.17684,0.11064,0.058371,0.012291,-0.00025746,-0.012032,0.061435,0.076684,0.054593,0.0096717,-0.026988,-0.032007,0.033276,0.045689,0.13413,0.1756,0.19477,0.10926,0.10215,0.046178,0.044388,0.0084901,0.041348,0.11148,0.11408,0.079271,0.030679,-0.034387,-0.024175,0.019469,0.11314,0.1279,0.19615,0.23217,0.1698,0.11538,0.059861,0.064948,0.077838,0.082118,0.10799,0.023183,-0.022277,-0.069867,-0.085931,-0.022098,0.071291,0.13251,0.17732,0.15806,0.1795,0.13434,0.036614,-0.014563,-0.030687,0.028589,0.029504,0.04512,0.019643,-0.032695,-0.074861,-0.039238,0.0048892,0.035246,0.058786,0.12838,0.12758,0.057838,0.073381,0.042864,-0.00079477,-0.0056657,-0.045432,-0.011457,-0.044255,-0.0821,-0.10142,-0.13422,-0.11726,-0.020099,0.053223,0.10652,0.050115,0.029496,-0.020183,-0.013112,-0.075287,-0.14659,-0.1409,-0.14314,-0.15109,-0.12361,-0.099117,-0.12146,-0.17331,-0.067481,-0.098558,0.011775,0.016002,-0.059841,-0.099125,-0.125,-0.15854,-0.21616,-0.20406,-0.18824,-0.15158,-0.13139,-0.15434,-0.24781,-0.26103,-0.29818,-0.24123,-0.19317,-0.088876,-0.065872,-0.052466,-0.10681,-0.17604,-0.24481,-0.33114,-0.3813,-0.39448,-0.35945,-0.27742,-0.27658,-0.3035,-0.34014,0.035857,-0.05103,-0.10148,-0.12508,-0.098566,-0.12979,-0.13324,-0.089507,-0.088716,-0.051398,-0.0054957,-0.014245,0.038883,0.1091,0.12872,0.13024,0.057378,-0.031946,-0.15748,-0.23254,-0.24101,-0.20418,-0.1945,-0.1641,-0.11813,-0.12156,-0.12547,-0.15201,-0.11492,-0.048308,0.063934,0.10829,0.11984,-0.053107,-0.19222,-0.3129,-0.37209,-0.32793,-0.2808,-0.19427,-0.20151,-0.23388,-0.24458,-0.25186,-0.23583,-0.18439,-0.069049,0.041005,0.065183,-0.024568,-0.21455,-0.39316,-0.46486,-0.50562,-0.41298,-0.3565,-0.26749,-0.24282,-0.24865,-0.34127,-0.34825,-0.28351,-0.17973,-0.095616,-0.035465,-0.11017,-0.219,-0.34656,-0.55156,-0.6773,-0.76836,-0.66114,-0.63314,-0.22474,-0.31749,-0.65994,-1.187,-1.0446,-1.0362,-0.45996,-0.56407,-0.74398,-0.51807,0.82704,1.6399,2.7476,3.0031,3.0733,2.9754,2.2543,1.328,1.0404,0.90932,0.63983,0.5885,0.32164,-0.67571,-2.0116,-2.5041,-2.6205,-1.5718,-1.0481,-0.61417,-0.55535,-0.64928,-0.47517,-0.22324,0.39067,0.67124,0.82225,0.98912,0.98511,0.95317,0.85787,0.76755,0.68642,0.54077,0.2119,0.086331,-0.042597,-0.035156,-0.10583,-0.16897,-0.022833,0.36465,0.45443,0.53088,0.49916,0.44273,0.46216,0.47194,0.50781,0.44115,0.31535,0.051525,-0.13382,-0.063762,0.0015566,0.13362,0.11327,0.10272,0.076577,0.15646,0.23678,0.25667,0.22326,0.24414,0.17153,-0.1722,-0.25664,-0.35054,-0.35732,-0.20334,-0.0013246,-0.09386,-0.02288,0.09615,0.14266,0.098433,-0.0075445,-0.45472,-0.59721,-0.62364,-0.24449,0.20624,0.81148,0.90179,0.84129,0.73749,0.8711,0.48447,0.44807,-0.014545,-1.0205,-0.81337,-0.4354,0.68181,0.25461,-0.47677,-0.85954,-0.8206,-0.53542,-0.33896,-0.080694,-0.13366,-0.15359,-0.14955,-0.1218,-0.10514,-0.058022,-0.10157,-0.16702,-0.23736,-0.2964,-0.34547,-0.23429,-0.11036,-0.020837,0.022121,-0.015513,-0.04645,-0.13047,-0.21208,-0.26056,-0.24859,-0.21598,-0.1687,-0.15631,-0.20584,-0.28203,-0.29358,-0.14173,-0.05701,-0.013405,0.05236,0.004938,-0.0097703,-0.077184,-0.11875,-0.25762,-0.28747,-0.25619,-0.21547,-0.14187,-0.11773,-0.075963,-0.03837,-0.031449,-0.0065128,0.039931,0.098317,0.076609,0.04768,0.028469,-0.06981,-0.14065,-0.19592,-0.17315,-0.089739,-0.012566,0.043723,0.0094945,-0.05999,-0.085383,-0.060002,0.080043,0.15444,0.22907,0.18491,0.077182,-0.012388,-0.073879,-0.13557,-0.10594,-0.098255,-0.075118,0.026829,0.029515,0.046756,-0.023677,-0.034205,0.0067137,0.078529,0.13752,0.15491,0.13325,0.09105,0.0403,-0.015858,-0.034845,-0.091895,-0.06955,-0.010718,0.0083439,0.022702,-0.0050041,-0.036742,0.0058287,0.020952,0.050348,0.19647,0.19541,0.23743,0.1583,0.074602,-0.0081403,-0.08507,-0.057428,-0.023942,0.064952,0.14018,0.099619,0.06648,0.08211,0.067444,0.090946,0.17767,0.1648,0.14779,0.1118,0.10494,0.10042,0.022902,-0.03751,-0.032673,0.039216,0.053734,0.074264,0.056452,0.024943,0.01821,0.015865,0.070258,0.14467,0.10936,0.081625,0.08155,0.046937,0.045987,-0.017789,-0.068662,-0.053006,-0.013787,0.05728,0.024617,-0.00046754,-0.0242,0.02016,0.061241,0.10746,0.12767,0.11352,0.043797,-0.026314,-0.017923,-0.043166,-0.062626,-0.028009,0.027104,0.060928,0.04799,0.0026566,-0.022687,-0.03501,-0.01553,0.025647,0.095541,0.099161,0.10782,0.04165,0.014149,-0.042206,-0.058024,-0.066686,-0.023334,-0.00029743,-0.012186,0.031157,0.016024,-0.040109,-0.003957,-0.014295,0.05734,0.03917,0.06527,0.036185,0.03992,0.0212,0.047337,0.0046665,0.0046773,-0.017116,0.0018427,0.048515,0.045874,0.0668,0.019669,-0.0035277,0.056406,0.04854,0.052242,0.10168,0.072521,0.01396,0.041171,-0.028871,-0.026198,-0.020027,-0.045646,-0.034345,-0.030943,-0.038775,-0.013376,-0.050377,0.0020002,0.057765,0.037193,-0.0083603,-0.03345,-0.095217,-0.035075,-0.033783,-0.025088,-0.051956,-0.043784,0.031593,0.00069077,-0.0035735,-0.011395,-0.051479,-0.044175,-0.027813,0.022883,0.022846,0.0056862,-0.019293,-0.074122,-0.076809,-0.028831,-0.011982,0.0011265,-0.030358,-0.033043,-0.040152,-0.047302,-0.049891,-0.0449,-0.033513,-0.058503,-0.019035,-0.029442,-0.013698,-0.034299,-0.043235,-0.071654,-0.051062,-0.029226,-0.017262,-0.019539,0.0046169,-0.044804,-0.05002,-0.044783,0.003512,0.01441,0.050108,0.0088408,-0.045488,-0.10229,-0.11536,-0.113,-0.020874,0.0072123,0.03006,0.068643,0.023139,0.0023752,-0.048133,-0.046924,-0.033561,-0.019187,-0.050712,-0.058707,-0.039641,-0.13236,-0.074126,-0.040373,-0.026759,-0.035305,-0.0405,-0.021768,-0.025976,-0.012678,-0.037903,0.021461,-0.0012374,0.018209,0.030538,0.026239,-0.028599,-0.087714,-0.10522,-0.075172,-0.066821,-0.0061275,-0.0078599,-0.013227,0.033963,0.017597,0.02171,-0.0040301,-0.042803,-0.060291,-0.038413,0.004047,-0.010775,-0.036713,-0.023281,-0.070906,-0.10365,-0.084295,-0.050975,-0.01255,0.013977,0.049286,0.056428,0.018181,-0.0028711,0.0055428,-0.0044828,0.0152,-0.025534,-0.051172,-0.08137,-0.063653,-0.028182,-0.012335,0.01788,0.057737,0.095134,0.14467,0.12878,0.088054,-0.020469,-0.032392,-0.049167,-0.01866,-0.0051754,-0.020841,-0.018247,-0.048406,-0.022891,-0.01204,0.015861,0.018625,0.024551,0.091846,0.057877,0.027037,0.015978,-0.017984,0.01913,0.012115,0.042136,0.08214,0.018249,-0.057616,-0.08404,-0.084292,-0.09669,-0.020649,0.13078,0.17113,0.1578,0.14381,0.026923,-0.059325,-0.084156,-0.070613,0.0017026,0.099749,0.091188,0.08644,0.013122,-0.041179,-0.027648,0.0096473,0.057512,0.14026,0.17241,0.17684,0.11064,0.058371,0.012291,-0.00025746,-0.012032,0.061435,0.076684,0.054593,0.0096717,-0.026988,-0.032007,0.033276,0.045689,0.13413,0.1756,0.19477,0.10926,0.10215,0.046178,0.044388,0.0084901,0.041348,0.11148,0.11408,0.079271,0.030679,-0.034387,-0.024175,0.019469,0.11314,0.1279,0.19615,0.23217,0.1698,0.11538,0.059861,0.064948,0.077838,0.082118,0.10799,0.023183,-0.022277,-0.069867,-0.085931,-0.022098,0.071291,0.13251,0.17732,0.15806,0.1795,0.13434,0.036614,-0.014563,-0.030687,0.028589,0.029504,0.04512,0.019643,-0.032695,-0.074861,-0.039238,0.0048892,0.035246,0.058786,0.12838,0.12758,0.057838,0.073381,0.042864,-0.00079477,-0.0056657,-0.045432,-0.011457,-0.044255,-0.0821,-0.10142,-0.13422,-0.11726,-0.020099,0.053223,0.10652,0.050115,0.029496,-0.020183,-0.013112,-0.075287,-0.14659,-0.1409,-0.14314,-0.15109,-0.12361,-0.099117,-0.12146,-0.17331,-0.067481,-0.098558,0.011775,0.016002,-0.059841,-0.099125,-0.125,-0.15854,-0.21616,-0.20406,-0.18824,-0.15158,-0.13139,-0.15434,-0.24781,-0.26103,-0.29818,-0.24123,-0.19317,-0.088876,-0.065872,-0.052466,-0.10681,-0.17604,-0.24481,-0.33114,-0.3813,-0.39448,-0.35945,-0.27742,-0.27658,-0.3035,-0.34014,-0.35092,-0.34888,-0.26298,-0.21109,-0.17506,-0.18057,-0.21012,-0.27691,-0.4055,-0.55206,-0.69672,-0.70621,-0.92658,-0.78989,-0.79911,-0.63816,-0.40548,-0.21367,0.08182,-0.024553,-0.60632,-0.6335,-0.44,-0.17364,0.88372,1.9164,2.1452,2.153,1.7517,1.4095,1.2117,0.94897,1.336,1.3791,0.40236,-0.66402,-1.5042,-1.5012,-1.8972,-1.2018,-0.86196,-0.40787,0.34719,0.40555,0.1721,-0.053889,-0.26072,-0.32342,0.34619,1.0055,1.0742,0.90218,0.66453,0.52704,0.40249,0.42323,0.43141,0.41272,0.36674,0.33629,0.26414,0.29018,0.24947,0.18109,0.076912,0.067995,0.16716,0.2976,0.53685,0.65437,0.64147,0.53506,0.36911,0.34621,0.2595,0.1458,0.087021,0.13271,0.20557,0.20257,0.20013,0.1609,0.19728,0.24738,0.21284,0.13216,-0.050244,0.023286,0.052476,-0.042908,-0.34721,-0.60608,-0.78199,-0.65142,-0.37785,0.023956,0.59186,0.76079,0.6497,0.29782,-0.45575,-0.47864,-0.095502,0.27599,0.97993,1.0738,0.80962,0.37348,0.014316,-0.29563,-0.44058,-0.44879,-0.26505,-0.13616,-0.30234,-0.44409,-0.44689,-0.38898,-0.29326,-0.17831,-0.08787,-0.11963,-0.16948,-0.27841,-0.34166,-0.4008,-0.45288,-0.44673,-0.48448,-0.41696,-0.37323,-0.28866,-0.27569,-0.25502,-0.18097,-0.090884,-0.14614,-0.1502,-0.26465,-0.3072,-0.3659,-0.38217,-0.29226,-0.26386,-0.21326,-0.21631,-0.22619,-0.2668,-0.29343,-0.26723,-0.19169,-0.14763,-0.070739,-0.040058,-0.060275,-0.064901,-0.096037,-0.11164,-0.12416,-0.17482,-0.21438,-0.15777,-0.16131,-0.1802,-0.15694,-0.18163,-0.17828,-0.089936,-0.047906,0.010877,0.057036,0.027715,-0.0078431,-0.028415,-0.074905,-0.087262,-0.13652,-0.061073,-0.036656,-0.044385,-0.037899,-0.058448,-0.04184,-0.025664,0.032902,0.06549,0.1034,0.059412,0.063792,0.037133,0.062229,0.054641,0.041009,0.029778,0.00048851,0.025673,0.046406,0.041069,-0.020673,0.0029394,0.029637,0.16151,0.21591,0.16067,0.14178,0.07619,0.059346,0.090397,0.082175,0.14006,0.13156,0.1423,0.16449,0.17428,0.15828,0.059081,0.054358,0.087021,0.13925,0.17589,0.21381,0.15481,0.13369,0.12619,0.15979,0.18529,0.13261,0.090243,0.10186,0.11739,0.11553,0.12886,0.1058,0.072714,0.10637,0.14669,0.12909,0.12007,0.10049,0.08967,0.12552,0.15856,0.18109,0.12901,0.089485,0.062991,0.10586,0.093354,0.10341,0.08594,0.058586,0.088177,0.11445,0.11965,0.14421,0.13266,0.095063,0.13403,0.091466,0.11227,0.099181,0.062042,0.068013,0.06462,0.044364,0.091646,0.080571,0.055506,0.077235,0.053689,0.087389,0.078992,0.041499,0.048353,0.088138,0.079418,0.10024,0.017389,0.017605,0.018229,0.079351,0.055041,0.032714,-0.0096225,0.036955,0.012831,-0.020556,-0.060751,0.012789,0.022831,0.034472,0.035935,-0.011349,-0.061142,-0.067099,0.0054646,-0.00046068,-0.055354,-0.079942,-0.060586,-0.063258,-0.057329,-0.053273,-0.053866,-0.051969,-0.077024,-0.095732,-0.08306,-0.01052,-0.056837,-0.065959,-0.033013,-0.036499,-0.012063,-0.069664,-0.090967,-0.10322,-0.10599,-0.069476,-0.10707,-0.10514,-0.12948,-0.07093,-0.048815,-0.037722,-0.039586,-0.046844,-0.015375,-0.0914,-0.099137,-0.078719,-0.13522,-0.115,-0.12429,-0.12995,-0.13504,-0.13617,-0.126,-0.10234,-0.10972,-0.05151,-0.080086,-0.081971,-0.12165,-0.086673,-0.054295,-0.065806,-0.083159,-0.099845,-0.11185,-0.15768,-0.20396,-0.21119,-0.17053,-0.1128,-0.043398,-0.012548,-0.067521,-0.098705,-0.098151,-0.096858,-0.060771,-0.1047,-0.1196,-0.099394,-0.11153,-0.084234,-0.095294,-0.10804,-0.11349,-0.13772,-0.10725,-0.070516,-0.0059259,-0.028477,0.013321,0.017799,0.02185,-0.016825,0.0079153,-0.081433,-0.058311,-0.066753,-0.075964,-0.09023,-0.067362,-0.067215,-0.081982,-0.00894,0.026219,0.084597,0.021714,0.10166,0.10985,0.11407,0.034766,0.019273,0.0037419,-0.0054131,0.024763,0.013158,0.032073,0.020174,-0.045017,0.020666,0.021511,0.050246,0.10145,0.10954,0.11934,0.12938,0.13085,0.11956,0.10239,0.090012,0.084561,0.077546,-0.011446,-0.063959,-0.071368,-0.055556,0.046838,0.079596,0.17206,0.18064,0.1889,0.16474,0.10072,0.096611,0.080435,0.063802,0.056041,0.12642,0.15389,0.061384,-0.063226,-0.10109,-0.080209,-0.049601,0.1155,0.27091,0.27598,0.17721,0.11826,0.054319,0.043934,0.061547,0.048185,0.15087,0.11238,0.13648,0.1157,0.065329,0.071079,0.092547,0.11301,0.051588,0.015225,-0.01535,0.037343,0.052913,0.089754,0.10642,0.12381,0.0788,0.11588,0.076099,0.060826,0.0086988,0.00094443,0.010294,0.02573,0.032258,0.028013,0.025874,0.037478,0.058159,0.070544,0.026712,0.07573,0.09651,0.094467,0.06169,0.057141,0.078028,0.026624,-0.0086309,-0.0010124,-0.033708,-0.041951,-0.017085,0.017235,0.03662,0.059429,0.065821,0.05105,0.029953,-0.012172,-0.0070115,-0.00065086,0.027421,-0.018557,0.005212,0.0056836,-0.026435,-0.0048928,-0.058785,-0.071983,-0.098747,-0.035267,0.019178,-0.015003,-0.03462,-0.088115,-0.051497,-0.075688,-0.030855,-0.034201,-0.042315,-0.012985,-0.014576,-0.026714,-0.054042,-0.082383,-0.089598,-0.068474,-0.069172,-0.052412,-0.061177,-0.11753,-0.12614,-0.11565,-0.097599,-0.050542,-0.017119,0.017732,0.01665,-0.029884,-0.058865,-0.13248,-0.16077,-0.19254,-0.1231,-0.089135,-0.046179,-0.023317,-0.038882,-0.073041,-0.12237,-0.13651,-0.12318,-0.080684,-0.0076128,0.025206,0.0013676,-0.044762,-0.12945,-0.18261,-0.19893,-0.15666,-0.056357,-0.054579,-0.070459,-0.11071,-0.095725,-0.066539,-0.03979,-0.022536,-0.011397,-0.0067362,-0.020165,-0.029277,-0.12237,-0.13668,-0.17473,-0.10608,-0.092834,-0.069625,-0.075674,-0.056417,-0.052261,-0.025169,0.010728,0.040812,-0.0069193,0.0077664,-0.028478,0.01529,-0.012873,-0.081549,-0.08332,-0.10696,-0.059296,-0.084805,-0.071621,-0.01338,-0.053647,-0.0045942,0.068478,0.039688,0.10619,0.13224,0.077684,0.10298,0.052947,0.0071118,-0.026586,-0.049801,-0.055351,-0.033904,-0.033836,0.0053493,-0.0075774,0.026165,0.053468,0.096938,0.10776,0.14474,0.17307,0.18196,0.15271,0.11227,0.020307,-0.076773,-0.08101,-0.034554,-0.016224,0.045611,0.071494,0.059608,0.069966,0.10654,0.15464,0.16775,0.20699,0.23338,0.2619,0.17593,0.11312,-0.017609,-0.10465,-0.088257,-0.031594,0.053114,0.097153,0.082521,0.074751,0.09498,0.13882,0.15696,0.20452,0.24394,0.26259,0.23783,0.15773,0.044523,-0.017067,-0.011109,0.024049,0.046584,-0.024165,0.0086422,-0.0099819,0.058663,0.088457,0.13764,0.19042,0.20599,0.24225,0.24689,0.19647,0.090356,-0.033077,-0.11586,-0.091152,-0.041776,0.013191,-0.036759,-0.052721,-0.071691,-0.064306,0.0096302,0.062376,0.080204,0.16499,0.15754,0.17862,0.063509,0.0056562,-0.15047,-0.18066,-0.19914,-0.14242,-0.13465,-0.13178,-0.086349,-0.13418,-0.15483,-0.11191,-0.057175,0.034778,0.081291,0.073381,0.042864,-0.00079477,-0.0056657,-0.045432,-0.011457,-0.044255,-0.0821,-0.10142,-0.13422,-0.11726,-0.020099,0.053223,0.10652,0.050115,0.029496,-0.020183,-0.013112,-0.075287,-0.14659,-0.1409,-0.14314,-0.15109,-0.12361,-0.099117,-0.12146,-0.17331,-0.067481,-0.098558,0.011775,0.016002,-0.059841,-0.099125,-0.125,-0.15854,-0.21616,-0.20406,-0.18824,-0.15158,-0.13139,-0.15434,-0.24781,-0.26103,-0.29818,-0.24123,-0.19317,-0.088876,-0.065872,-0.052466,-0.10681,-0.17604,-0.24481,-0.33114,-0.3813,-0.39448,-0.35945,-0.27742,-0.27658,-0.3035,-0.34014,-0.35092,-0.34888,-0.26298,-0.21109,-0.17506,-0.18057,-0.21012,-0.27691,-0.4055,-0.55206,-0.69672,-0.70621,-0.92658,-0.78989,-0.79911,-0.63816,-0.40548,-0.21367,0.08182,-0.024553,-0.60632,-0.6335,-0.44,-0.17364,0.88372,1.9164,2.1452,2.153,1.7517,1.4095,1.2117,0.94897,1.336,1.3791,0.40236,-0.66402,-1.5042,-1.5012,-1.8972,-1.2018,-0.86196,-0.40787,0.34719,0.40555,0.1721,-0.053889,-0.26072,-0.32342,0.34619,1.0055,1.0742,0.90218,0.66453,0.52704,0.40249,0.42323,0.43141,0.41272,0.36674,0.33629,0.26414,0.29018,0.24947,0.18109,0.076912,0.067995,0.16716,0.2976,0.53685,0.65437,0.64147,0.53506,0.36911,0.34621,0.2595,0.1458,0.087021,0.13271,0.20557,0.20257,0.20013,0.1609,0.19728,0.24738,0.21284,0.13216,-0.050244,0.023286,0.052476,-0.042908,-0.34721,-0.60608,-0.78199,-0.65142,-0.37785,0.023956,0.59186,0.76079,0.6497,0.29782,-0.45575,-0.47864,-0.095502,0.27599,0.97993,1.0738,0.80962,0.37348,0.014316,-0.29563,-0.44058,-0.44879,-0.26505,-0.13616,-0.30234,-0.44409,-0.44689,-0.38898,-0.29326,-0.17831,-0.08787,-0.11963,-0.16948,-0.27841,-0.34166,-0.4008,-0.45288,-0.44673,-0.48448,-0.41696,-0.37323,-0.28866,-0.27569,-0.25502,-0.18097,-0.090884,-0.14614,-0.1502,-0.26465,-0.3072,-0.3659,-0.38217,-0.29226,-0.26386,-0.21326,-0.21631,-0.22619,-0.2668,-0.29343,-0.26723,-0.19169,-0.14763,-0.070739,-0.040058,-0.060275,-0.064901,-0.096037,-0.11164,-0.12416,-0.17482,-0.21438,-0.15777,-0.16131,-0.1802,-0.15694,-0.18163,-0.17828,-0.089936,-0.047906,0.010877,0.057036,0.027715,-0.0078431,-0.028415,-0.074905,-0.087262,-0.13652,-0.061073,-0.036656,-0.044385,-0.037899,-0.058448,-0.04184,-0.025664,0.032902,0.06549,0.1034,0.059412,0.063792,0.037133,0.062229,0.054641,0.041009,0.029778,0.00048851,0.025673,0.046406,0.041069,-0.020673,0.0029394,0.029637,0.16151,0.21591,0.16067,0.14178,0.07619,0.059346,0.090397,0.082175,0.14006,0.13156,0.1423,0.16449,0.17428,0.15828,0.059081,0.054358,0.087021,0.13925,0.17589,0.21381,0.15481,0.13369,0.12619,0.15979,0.18529,0.13261,0.090243,0.10186,0.11739,0.11553,0.12886,0.1058,0.072714,0.10637,0.14669,0.12909,0.12007,0.10049,0.08967,0.12552,0.15856,0.18109,0.12901,0.089485,0.062991,0.10586,0.093354,0.10341,0.08594,0.058586,0.088177,0.11445,0.11965,0.14421,0.13266,0.095063,0.13403,0.091466,0.11227,0.099181,0.062042,0.068013,0.06462,0.044364,0.091646,0.080571,0.055506,0.077235,0.053689,0.087389,0.078992,0.041499,0.048353,0.088138,0.079418,0.10024,0.017389,0.017605,0.018229,0.079351,0.055041,0.032714,-0.0096225,0.036955,0.012831,-0.020556,-0.060751,0.012789,0.022831,0.034472,0.035935,-0.011349,-0.061142,-0.067099,0.0054646,-0.00046068,-0.055354,-0.079942,-0.060586,-0.063258,-0.057329,-0.053273,-0.053866,-0.051969,-0.077024,-0.095732,-0.08306,-0.01052,-0.056837,-0.065959,-0.033013,-0.036499,-0.012063,-0.069664,-0.090967,-0.10322,-0.10599,-0.069476,-0.10707,-0.10514,-0.12948,-0.07093,-0.048815,-0.037722,-0.039586,-0.046844,-0.015375,-0.0914,-0.099137,-0.078719,-0.13522,-0.115,-0.12429,-0.12995,-0.13504,-0.13617,-0.126,-0.10234,-0.10972,-0.05151,-0.080086,-0.081971,-0.12165,-0.086673,-0.054295,-0.065806,-0.083159,-0.099845,-0.11185,-0.15768,-0.20396,-0.21119,-0.17053,-0.1128,-0.043398,-0.012548,-0.067521,-0.098705,-0.098151,-0.096858,-0.060771,-0.1047,-0.1196,-0.099394,-0.11153,-0.084234,-0.095294,-0.10804,-0.11349,-0.13772,-0.10725,-0.070516,-0.0059259,-0.028477,0.013321,0.017799,0.02185,-0.016825,0.0079153,-0.081433,-0.058311,-0.066753,-0.075964,-0.09023,-0.067362,-0.067215,-0.081982,-0.00894,0.026219,0.084597,0.021714,0.10166,0.10985,0.11407,0.034766,0.019273,0.0037419,-0.0054131,0.024763,0.013158,0.032073,0.020174,-0.045017,0.020666,0.021511,0.050246,0.10145,0.10954,0.11934,0.12938,0.13085,0.11956,0.10239,0.090012,0.084561,0.077546,-0.011446,-0.063959,-0.071368,-0.055556,0.046838,0.079596,0.17206,0.18064,0.1889,0.16474,0.10072,0.096611,0.080435,0.063802,0.056041,0.12642,0.15389,0.061384,-0.063226,-0.10109,-0.080209,-0.049601,0.1155,0.27091,0.27598,0.17721,0.11826,0.054319,0.043934,0.061547,0.048185,0.15087,0.11238,0.13648,0.1157,0.065329,0.071079,0.092547,0.11301,0.051588,0.015225,-0.01535,0.037343,0.052913,0.089754,0.10642,0.12381,0.0788,0.11588,0.076099,0.060826,0.0086988,0.00094443,0.010294,0.02573,0.032258,0.028013,0.025874,0.037478,0.058159,0.070544,0.026712,0.07573,0.09651,0.094467,0.06169,0.057141,0.078028,0.026624,-0.0086309,-0.0010124,-0.033708,-0.041951,-0.017085,0.017235,0.03662,0.059429,0.065821,0.05105,0.029953,-0.012172,-0.0070115,-0.00065086,0.027421,-0.018557,0.005212,0.0056836,-0.026435,-0.0048928,-0.058785,-0.071983,-0.098747,-0.035267,0.019178,-0.015003,-0.03462,-0.088115,-0.051497,-0.075688,-0.030855,-0.034201,-0.042315,-0.012985,-0.014576,-0.026714,-0.054042,-0.082383,-0.089598,-0.068474,-0.069172,-0.052412,-0.061177,-0.11753,-0.12614,-0.11565,-0.097599,-0.050542,-0.017119,0.017732,0.01665,-0.029884,-0.058865,-0.13248,-0.16077,-0.19254,-0.1231,-0.089135,-0.046179,-0.023317,-0.038882,-0.073041,-0.12237,-0.13651,-0.12318,-0.080684,-0.0076128,0.025206,0.0013676,-0.044762,-0.12945,-0.18261,-0.19893,-0.15666,-0.056357,-0.054579,-0.070459,-0.11071,-0.095725,-0.066539,-0.03979,-0.022536,-0.011397,-0.0067362,-0.020165,-0.029277,-0.12237,-0.13668,-0.17473,-0.10608,-0.092834,-0.069625,-0.075674,-0.056417,-0.052261,-0.025169,0.010728,0.040812,-0.0069193,0.0077664,-0.028478,0.01529,-0.012873,-0.081549,-0.08332,-0.10696,-0.059296,-0.084805,-0.071621,-0.01338,-0.053647,-0.0045942,0.068478,0.039688,0.10619,0.13224,0.077684,0.10298,0.052947,0.0071118,-0.026586,-0.049801,-0.055351,-0.033904,-0.033836,0.0053493,-0.0075774,0.026165,0.053468,0.096938,0.10776,0.14474,0.17307,0.18196,0.15271,0.11227,0.020307,-0.076773,-0.08101,-0.034554,-0.016224,0.045611,0.071494,0.059608,0.069966,0.10654,0.15464,0.16775,0.20699,0.23338,0.2619,0.17593,0.11312,-0.017609,-0.10465,-0.088257,-0.031594,0.053114,0.097153,0.082521,0.074751,0.09498,0.13882,0.15696,0.20452,0.24394,0.26259,0.23783,0.15773,0.044523,-0.017067,-0.011109,0.024049,0.046584,-0.024165,0.0086422,-0.0099819,0.058663,0.088457,0.13764,0.19042,0.20599,0.24225,0.24689,0.19647,0.090356,-0.033077,-0.11586,-0.091152,-0.041776,0.013191,-0.036759,-0.052721,-0.071691,-0.064306,0.0096302,0.062376,0.080204,0.16499,0.15754,0.17862,0.063509,0.0056562,-0.15047,-0.18066,-0.19914,-0.14242,-0.13465,-0.13178,-0.086349,-0.13418,-0.15483,-0.11191,-0.057175,0.034778,0.081291,0.13108,0.058281,-0.047096,-0.18546,-0.26302,-0.29904,-0.33425,-0.27869,-0.28777,-0.26401,-0.25393,-0.1918,-0.168,-0.12252,-0.24661,-0.22786,0.028615,-0.04058,-0.17892,-0.30207,-0.43468,-0.48046,-0.38011,-0.18884,-0.36064,-0.49989,-0.59311,-0.65316,-0.51031,-0.69791,-0.93717,-1.2038,-0.72437,-0.19177,-0.10786,-0.11826,0.65565,1.8748,3.0779,2.6243,1.9497,0.9395,0.64409,0.61839,0.67541,0.43569,0.33138,0.16718,-0.53287,-1.1355,-1.7341,-1.4144,-0.28648,0.060494,0.1456,-0.065175,-0.10634,-0.024263,0.25436,0.46067,0.79381,0.78501,0.6645,0.6381,0.58923,0.42787,0.24845,-0.1117,-0.20611,0.081701,0.10886,0.10852,0.030667,0.0066486,0.088507,0.10532,0.05709,0.10667,0.10999,0.21638,0.16111,0.15355,0.13727,0.2796,0.33436,0.29718,-0.03075,-0.38207,-0.68107,-0.87718,-0.89634,-0.63861,-0.34295,-0.11124,0.056285,0.038019,0.18537,0.1018,0.092505,0.25573,0.38377,0.39016,0.16525,-0.11702,-0.30164,-0.31541,-0.16565,0.10042,0.16648,0.019213,-0.35695,-0.28829,-0.19468,-0.21481,-0.18917,-0.23692,-0.2254,-0.25473,-0.44237,-0.5215,-0.52917,-0.35651,-0.23928,-0.046753,0.030921,-0.058118,-0.068267,-0.18874,-0.29449,-0.2635,-0.24711,-0.18506,-0.092545,-0.059503,-0.064361,-0.073335,-0.14161,-0.19988,-0.2926,-0.23297,-0.18876,-0.15424,-0.18245,-0.1935,-0.23532,-0.22392,-0.15453,-0.1334,-0.075934,-0.030153,0.022573,0.04458,2.0583e-05,-0.091346,-0.093145,-0.166,-0.1744,-0.13619,-0.11162,-0.10995,-0.084761,-0.089489,-0.073085,-0.0012858,0.050147,0.13548,0.13142,0.13805,0.084447,0.044902,0.037284,0.015407,0.021787,0.016818,0.047089,0.061919,0.057188,0.04461,0.0057314,0.093935,0.13198,0.14377,0.18033,0.16219,0.15879,0.13675,0.10519,0.14677,0.10276,0.11269,0.13618,0.15732,0.19566,0.22134,0.13764,0.099475,0.11837,0.11577,0.18711,0.21034,0.25302,0.27656,0.2569,0.20089,0.14605,0.14018,0.14899,0.20199,0.21327,0.20966,0.15691,0.10481,0.14049,0.12191,0.18583,0.24511,0.25438,0.25052,0.20271,0.18866,0.1379,0.16263,0.19418,0.16169,0.23904,0.17193,0.16119,0.14144,0.12574,0.16196,0.14041,0.19526,0.20462,0.1653,0.15652,0.18543,0.18003,0.17314,0.19637,0.18827,0.1532,0.15431,0.11369,0.098419,0.11336,0.061776,0.061591,0.072148,0.080527,0.07793,-0.005207,0.060186,0.09704,0.10012,0.060605,0.049506,0.037235,0.030706,0.028028,0.056767,0.039006,-0.019027,-0.068819,-0.032394,-0.026818,-0.027845,-0.075259,-0.086997,-0.051768,-0.078341,-0.068576,-0.070355,-0.047354,-0.026021,-0.071028,-0.038964,-0.084599,-0.065711,-0.084575,-0.094681,-0.1313,-0.13104,-0.17592,-0.15377,-0.091719,-0.082603,-0.062824,-0.048737,-0.084638,-0.068304,-0.11745,-0.12512,-0.16467,-0.17267,-0.18786,-0.16598,-0.20839,-0.17151,-0.14224,-0.155,-0.20127,-0.2003,-0.21613,-0.18821,-0.13628,-0.14219,-0.19687,-0.21119,-0.25107,-0.21395,-0.21898,-0.26666,-0.2394,-0.27778,-0.2777,-0.2483,-0.26225,-0.30622,-0.25702,-0.22553,-0.2301,-0.18073,-0.22641,-0.28004,-0.25254,-0.21358,-0.20881,-0.17377,-0.2162,-0.18296,-0.21817,-0.21931,-0.22858,-0.23999,-0.23827,-0.17766,-0.13956,-0.14496,-0.13633,-0.11061,-0.16059,-0.16335,-0.19221,-0.18397,-0.18133,-0.1816,-0.17962,-0.14019,-0.10623,-0.11565,-0.15842,-0.14749,-0.11579,-0.11319,-0.086961,-0.046828,-0.057664,-0.02988,-0.063005,-0.087377,-0.075691,-0.068873,0.0083419,-0.023784,-0.021936,-0.062907,-0.070828,-0.034395,-0.016259,0.017812,0.052296,0.070591,0.068952,0.022205,0.018396,0.063595,0.079448,0.093684,0.10275,0.071994,0.075716,0.075494,0.10659,0.13763,0.142,0.16187,0.19147,0.18003,0.18923,0.14727,0.10237,0.13921,0.18757,0.24135,0.25653,0.26631,0.27126,0.2356,0.23198,0.18902,0.22147,0.18995,0.20534,0.22488,0.23847,0.2767,0.26979,0.26345,0.30212,0.27761,0.33062,0.27217,0.31692,0.28202,0.27836,0.27177,0.30139,0.29724,0.29788,0.26641,0.27235,0.27472,0.27117,0.30023,0.29464,0.29651,0.30731,0.32288,0.33593,0.34088,0.37363,0.29223,0.28343,0.27586,0.23179,0.25941,0.25029,0.24279,0.23712,0.23123,0.26029,0.25406,0.25446,0.26417,0.27879,0.21624,0.25239,0.24305,0.26824,0.22319,0.25102,0.27248,0.1766,0.15209,0.13452,0.16243,0.15729,0.14979,0.1417,0.10423,0.041439,0.056392,0.13702,0.16779,0.15424,0.17925,0.13556,0.087199,0.060973,-0.013894,-0.050288,-0.071505,-0.0048762,-0.044123,-0.015521,-0.060833,-0.059878,-0.046108,-0.030297,-0.026669,-0.037829,-0.016217,-0.060416,-0.028424,-0.081829,-0.15745,-0.13621,-0.14167,-0.19604,-0.19607,-0.1956,-0.27608,-0.24671,-0.27668,-0.22055,-0.20355,-0.20353,-0.18082,-0.1921,-0.19245,-0.23048,-0.21824,-0.30741,-0.40489,-0.44482,-0.45228,-0.44225,-0.40073,-0.36973,-0.37136,-0.31911,-0.32852,-0.31076,-0.35012,-0.39905,-0.4015,-0.35529,-0.35542,-0.3891,-0.4167,-0.47911,-0.54403,-0.53539,-0.55119,-0.50617,-0.50828,-0.53714,-0.43585,-0.43708,-0.41846,-0.42157,-0.42719,-0.41614,-0.39624,-0.36207,-0.44373,-0.55171,-0.60677,-0.61572,-0.55161,-0.48508,-0.47361,-0.46952,-0.44844,-0.44213,-0.43642,-0.38136,-0.4186,-0.41267,-0.38583,-0.35834,-0.36689,-0.42322,-0.42241,-0.42486,-0.41012,-0.40212,-0.43967,-0.42579,-0.41171,-0.33682,-0.24308,-0.19665,-0.14275,-0.21143,-0.19022,-0.1475,-0.11679,-0.1361,-0.16689,-0.30734,-0.32473,-0.28522,-0.19036,-0.11557,-0.098052,-0.10756,-0.015441,0.015226,0.024151,0.03957,0.052519,0.16462,0.18351,0.24627,0.17473,0.099164,-0.02922,0.052412,0.11365,0.17855,0.21497,0.23669,0.27844,0.38574,0.3838,0.4598,0.4732,0.49701,0.55254,0.61307,0.66321,0.61033,0.5318,0.42171,0.4563,0.532,0.59539,0.62704,0.72721,0.78315,0.82642,0.89235,0.92088,0.93282,1.0052,1.0728,1.0924,1.0495,0.97993,0.94268,0.96586,1.0596,1.1036,1.1209,1.1454,1.1779,1.2435,1.3221,1.4098,1.4235,1.4711,1.4446,1.4804,1.5239,1.569,1.4906,1.4308,0.24225,0.24689,0.19647,0.090356,-0.033077,-0.11586,-0.091152,-0.041776,0.013191,-0.036759,-0.052721,-0.071691,-0.064306,0.0096302,0.062376,0.080204,0.16499,0.15754,0.17862,0.063509,0.0056562,-0.15047,-0.18066,-0.19914,-0.14242,-0.13465,-0.13178,-0.086349,-0.13418,-0.15483,-0.11191,-0.057175,0.034778,0.081291,0.13108,0.058281,-0.047096,-0.18546,-0.26302,-0.29904,-0.33425,-0.27869,-0.28777,-0.26401,-0.25393,-0.1918,-0.168,-0.12252,-0.24661,-0.22786,0.028615,-0.04058,-0.17892,-0.30207,-0.43468,-0.48046,-0.38011,-0.18884,-0.36064,-0.49989,-0.59311,-0.65316,-0.51031,-0.69791,-0.93717,-1.2038,-0.72437,-0.19177,-0.10786,-0.11826,0.65565,1.8748,3.0779,2.6243,1.9497,0.9395,0.64409,0.61839,0.67541,0.43569,0.33138,0.16718,-0.53287,-1.1355,-1.7341,-1.4144,-0.28648,0.060494,0.1456,-0.065175,-0.10634,-0.024263,0.25436,0.46067,0.79381,0.78501,0.6645,0.6381,0.58923,0.42787,0.24845,-0.1117,-0.20611,0.081701,0.10886,0.10852,0.030667,0.0066486,0.088507,0.10532,0.05709,0.10667,0.10999,0.21638,0.16111,0.15355,0.13727,0.2796,0.33436,0.29718,-0.03075,-0.38207,-0.68107,-0.87718,-0.89634,-0.63861,-0.34295,-0.11124,0.056285,0.038019,0.18537,0.1018,0.092505,0.25573,0.38377,0.39016,0.16525,-0.11702,-0.30164,-0.31541,-0.16565,0.10042,0.16648,0.019213,-0.35695,-0.28829,-0.19468,-0.21481,-0.18917,-0.23692,-0.2254,-0.25473,-0.44237,-0.5215,-0.52917,-0.35651,-0.23928,-0.046753,0.030921,-0.058118,-0.068267,-0.18874,-0.29449,-0.2635,-0.24711,-0.18506,-0.092545,-0.059503,-0.064361,-0.073335,-0.14161,-0.19988,-0.2926,-0.23297,-0.18876,-0.15424,-0.18245,-0.1935,-0.23532,-0.22392,-0.15453,-0.1334,-0.075934,-0.030153,0.022573,0.04458,2.0583e-05,-0.091346,-0.093145,-0.166,-0.1744,-0.13619,-0.11162,-0.10995,-0.084761,-0.089489,-0.073085,-0.0012858,0.050147,0.13548,0.13142,0.13805,0.084447,0.044902,0.037284,0.015407,0.021787,0.016818,0.047089,0.061919,0.057188,0.04461,0.0057314,0.093935,0.13198,0.14377,0.18033,0.16219,0.15879,0.13675,0.10519,0.14677,0.10276,0.11269,0.13618,0.15732,0.19566,0.22134,0.13764,0.099475,0.11837,0.11577,0.18711,0.21034,0.25302,0.27656,0.2569,0.20089,0.14605,0.14018,0.14899,0.20199,0.21327,0.20966,0.15691,0.10481,0.14049,0.12191,0.18583,0.24511,0.25438,0.25052,0.20271,0.18866,0.1379,0.16263,0.19418,0.16169,0.23904,0.17193,0.16119,0.14144,0.12574,0.16196,0.14041,0.19526,0.20462,0.1653,0.15652,0.18543,0.18003,0.17314,0.19637,0.18827,0.1532,0.15431,0.11369,0.098419,0.11336,0.061776,0.061591,0.072148,0.080527,0.07793,-0.005207,0.060186,0.09704,0.10012,0.060605,0.049506,0.037235,0.030706,0.028028,0.056767,0.039006,-0.019027,-0.068819,-0.032394,-0.026818,-0.027845,-0.075259,-0.086997,-0.051768,-0.078341,-0.068576,-0.070355,-0.047354,-0.026021,-0.071028,-0.038964,-0.084599,-0.065711,-0.084575,-0.094681,-0.1313,-0.13104,-0.17592,-0.15377,-0.091719,-0.082603,-0.062824,-0.048737,-0.084638,-0.068304,-0.11745,-0.12512,-0.16467,-0.17267,-0.18786,-0.16598,-0.20839,-0.17151,-0.14224,-0.155,-0.20127,-0.2003,-0.21613,-0.18821,-0.13628,-0.14219,-0.19687,-0.21119,-0.25107,-0.21395,-0.21898,-0.26666,-0.2394,-0.27778,-0.2777,-0.2483,-0.26225,-0.30622,-0.25702,-0.22553,-0.2301,-0.18073,-0.22641,-0.28004,-0.25254,-0.21358,-0.20881,-0.17377,-0.2162,-0.18296,-0.21817,-0.21931,-0.22858,-0.23999,-0.23827,-0.17766,-0.13956,-0.14496,-0.13633,-0.11061,-0.16059,-0.16335,-0.19221,-0.18397,-0.18133,-0.1816,-0.17962,-0.14019,-0.10623,-0.11565,-0.15842,-0.14749,-0.11579,-0.11319,-0.086961,-0.046828,-0.057664,-0.02988,-0.063005,-0.087377,-0.075691,-0.068873,0.0083419,-0.023784,-0.021936,-0.062907,-0.070828,-0.034395,-0.016259,0.017812,0.052296,0.070591,0.068952,0.022205,0.018396,0.063595,0.079448,0.093684,0.10275,0.071994,0.075716,0.075494,0.10659,0.13763,0.142,0.16187,0.19147,0.18003,0.18923,0.14727,0.10237,0.13921,0.18757,0.24135,0.25653,0.26631,0.27126,0.2356,0.23198,0.18902,0.22147,0.18995,0.20534,0.22488,0.23847,0.2767,0.26979,0.26345,0.30212,0.27761,0.33062,0.27217,0.31692,0.28202,0.27836,0.27177,0.30139,0.29724,0.29788,0.26641,0.27235,0.27472,0.27117,0.30023,0.29464,0.29651,0.30731,0.32288,0.33593,0.34088,0.37363,0.29223,0.28343,0.27586,0.23179,0.25941,0.25029,0.24279,0.23712,0.23123,0.26029,0.25406,0.25446,0.26417,0.27879,0.21624,0.25239,0.24305,0.26824,0.22319,0.25102,0.27248,0.1766,0.15209,0.13452,0.16243,0.15729,0.14979,0.1417,0.10423,0.041439,0.056392,0.13702,0.16779,0.15424,0.17925,0.13556,0.087199,0.060973,-0.013894,-0.050288,-0.071505,-0.0048762,-0.044123,-0.015521,-0.060833,-0.059878,-0.046108,-0.030297,-0.026669,-0.037829,-0.016217,-0.060416,-0.028424,-0.081829,-0.15745,-0.13621,-0.14167,-0.19604,-0.19607,-0.1956,-0.27608,-0.24671,-0.27668,-0.22055,-0.20355,-0.20353,-0.18082,-0.1921,-0.19245,-0.23048,-0.21824,-0.30741,-0.40489,-0.44482,-0.45228,-0.44225,-0.40073,-0.36973,-0.37136,-0.31911,-0.32852,-0.31076,-0.35012,-0.39905,-0.4015,-0.35529,-0.35542,-0.3891,-0.4167,-0.47911,-0.54403,-0.53539,-0.55119,-0.50617,-0.50828,-0.53714,-0.43585,-0.43708,-0.41846,-0.42157,-0.42719,-0.41614,-0.39624,-0.36207,-0.44373,-0.55171,-0.60677,-0.61572,-0.55161,-0.48508,-0.47361,-0.46952,-0.44844,-0.44213,-0.43642,-0.38136,-0.4186,-0.41267,-0.38583,-0.35834,-0.36689,-0.42322,-0.42241,-0.42486,-0.41012,-0.40212,-0.43967,-0.42579,-0.41171,-0.33682,-0.24308,-0.19665,-0.14275,-0.21143,-0.19022,-0.1475,-0.11679,-0.1361,-0.16689,-0.30734,-0.32473,-0.28522,-0.19036,-0.11557,-0.098052,-0.10756,-0.015441,0.015226,0.024151,0.03957,0.052519,0.16462,0.18351,0.24627,0.17473,0.099164,-0.02922,0.052412,0.11365,0.17855,0.21497,0.23669,0.27844,0.38574,0.3838,0.4598,0.4732,0.49701,0.55254,0.61307,0.66321,0.61033,0.5318,0.42171,0.4563,0.532,0.59539,0.62704,0.72721,0.78315,0.82642,0.89235,0.92088,0.93282,1.0052,1.0728,1.0924,1.0495,0.97993,0.94268,0.96586,1.0596,1.1036,1.1209,1.1454,1.1779,1.2435,1.3221,1.4098,1.4235,1.4711,1.4446,1.4804,1.5239,1.569,1.4906,1.4308,1.406,1.477,1.6238,1.8408,1.9638,1.6789,1.5988,1.3414,0.40182,0.39961,0.30663,0.82746,1.0742,1.3469,1.803,2.1601,2.8752,2.7282,2.1878,1.4188,0.93403,0.33213,-0.88196,-1.8198,-1.5507,-1.3228,-1.5501,-1.5436,-3.1438,-3.9891,-3.2051,-2.5862,-1.5487,-1.3191,-1.3159,-1.7936,-2.0076,-2.0046,-1.3137,-0.8293,-0.44313,-0.59518,-1.3349,-1.6564,-1.7916,-1.6647,-1.2286,-1.0814,-1.2777,-1.6459,-1.6535,-1.6447,-1.5571,-1.4783,-1.3761,-1.2825,-1.1574,-1.1502,-1.1886,-1.3062,-1.4123,-1.4955,-1.4441,-1.4367,-1.3976,-1.3902,-1.3483,-1.3753,-1.367,-1.2956,-1.3805,-1.3562,-1.3428,-1.3312,-1.3464,-1.373,-1.4236,-1.2679,-1.2117,-1.2515,-1.3032,-1.4984,-1.6398,-1.7225,-1.632,-1.4865,-1.1889,-0.96598,-0.83965,-0.8961,-0.43216,0.072,1.1016,1.6189,1.5994,1.1571,0.74004,0.73286,0.88646,1.0881,1.3817,1.6217,1.825,1.8487,1.6351,1.4738,0.84908,0.50743,0.30328,0.67173,1.7997,2.23,2.9753,2.6564,2.1268,1.3123,0.91804,0.79585,0.39129,0.2883,0.44033,0.62594,1.0952,1.2641,1.3384,1.3269,1.2491,1.0552,0.98496,0.86846,0.82264,0.72375,0.63878,0.59097,0.59573,0.64924,0.6796,0.71916,0.65939,0.63451,0.6581,0.6095,0.5448,0.46536,0.46236,0.47585,0.43021,0.44493,0.34711,0.28033,0.2894,0.30599,0.321,0.34087,0.3079,0.29658,0.31731,0.29869,0.23829,0.16561,0.095611,0.07458,0.16763,0.18711,0.12549,0.033576,-0.012517,-0.051892,0.0074423,0.048346,0.063048,0.0011123,0.0042722,-0.0014364,0.0084716,0.0021209,-0.069826,-0.12361,-0.12621,-0.096474,-0.082982,-0.14403,-0.19124,-0.21515,-0.20174,-0.14512,-0.17692,-0.16576,-0.17884,-0.16159,-0.16508,-0.13221,-0.24845,-0.27693,-0.279,-0.22952,-0.23407,-0.22593,-0.21588,-0.2842,-0.32116,-0.33416,-0.31322,-0.31724,-0.33423,-0.33365,-0.2696,-0.20968,-0.2194,-0.2332,-0.32387,-0.37407,-0.35044,-0.25038,-0.28252,-0.30327,-0.35154,-0.33974,-0.27877,-0.26263,-0.26919,-0.24228,-0.22976,-0.23413,-0.17768,-0.23338,-0.3157,-0.32393,-0.35919,-0.29734,-0.30294,-0.23088,-0.2792,-0.24304,-0.25788,-0.30032,-0.2539,-0.22796,-0.22942,-0.20868,-0.21037,-0.23603,-0.22562,-0.27084,-0.29926,-0.29159,-0.29827,-0.23898,-0.23574,-0.23845,-0.22737,-0.23806,-0.21598,-0.21195,-0.1815,-0.14338,-0.11858,-0.055653,-0.12361,-0.1541,-0.23025,-0.24842,-0.27165,-0.20767,-0.15232,-0.11419,-0.10855,-0.090391,-0.065446,-0.08315,-0.12081,-0.089075,-0.046885,-0.05551,-0.0035991,-0.043018,-0.041489,-0.074191,-0.084756,-0.070311,-0.080202,-0.064788,-0.056779,-0.012128,0.0086822,0.029432,0.037468,0.032617,0.029035,0.039553,0.027131,0.038567,0.059433,0.029596,0.0028642,-0.036473,0.0092371,-0.0049749,0.0089334,0.019995,0.068138,0.087683,0.10205,0.070559,0.026634,0.023745,0.070011,0.11831,0.090509,0.10865,0.081561,0.026571,0.021405,0.031585,0.047105,0.061131,0.074595,0.090369,0.069391,0.077296,0.11047,0.065395,0.098637,0.13834,0.11558,0.11636,0.13465,0.078359,0.059244,0.053791,0.094277,0.10838,0.15994,0.1748,0.15273,0.16349,0.13313,0.15919,0.14908,0.14405,0.14747,0.15388,0.12077,0.14139,0.12147,0.10406,0.097638,0.10362,0.084682,0.13374,0.14893,0.16106,0.16755,0.16572,0.15598,0.074412,0.10349,0.13736,0.10999,0.11111,0.10183,0.047774,0.10021,0.093418,0.13612,0.11482,0.13189,0.11299,0.12168,0.15693,0.15193,0.13996,0.16191,0.11574,0.082811,0.089575,0.093936,0.051192,0.034711,0.054064,0.080309,0.088357,0.10579,0.12342,0.17152,0.13965,0.10521,0.060606,0.082386,0.065366,0.054365,0.12482,0.098765,0.10695,0.069637,0.085611,0.035361,0.099719,0.074395,0.093677,0.10995,0.11774,0.11833,0.11391,0.10343,0.052928,0.10213,0.05382,0.057719,0.072864,0.05162,0.047319,-0.0072316,0.012365,0.010993,0.026109,0.078992,0.091818,0.06156,0.058162,0.051413,0.071126,0.049519,-0.0065671,-0.017811,-0.0092036,0.04404,0.094043,0.051827,-0.00023575,0.018161,0.021814,0.04012,0.058376,-0.0036535,0.029832,0.023096,0.013925,0.030057,-0.028559,-0.020736,-0.029186,-0.01519,0.0088782,-0.0108,-0.018769,-0.037674,-0.014728,0.031042,0.014769,0.065683,-0.0031546,-0.048262,-0.02167,-0.033375,-0.021089,-0.050797,-0.10923,-0.11371,-0.094056,-0.06712,-0.02239,0.0041587,-0.049523,-0.086509,-0.071896,-0.051647,-0.0099632,-0.016697,-0.030136,-0.075197,-0.12606,-0.11431,-0.14708,-0.17117,-0.16975,-0.14448,-0.083802,-0.074793,-0.11869,-0.16762,-0.12694,-0.10718,-0.089631,-0.056254,-0.070599,-0.11996,-0.099852,-0.11607,-0.17727,-0.17896,-0.23244,-0.2244,-0.23116,-0.24025,-0.16036,-0.13626,-0.14032,-0.12686,-0.10437,-0.09273,-0.13449,-0.15501,-0.17232,-0.18406,-0.20154,-0.23259,-0.23395,-0.24901,-0.23337,-0.23235,-0.20562,-0.16646,-0.2029,-0.19646,-0.17409,-0.1876,-0.1837,-0.16513,-0.18916,-0.20442,-0.21361,-0.16247,-0.23184,-0.29698,-0.3051,-0.31814,-0.28066,-0.25387,-0.20867,-0.20313,-0.18386,-0.15346,-0.10007,-0.10576,-0.16443,-0.22551,-0.23625,-0.2422,-0.22453,-0.25816,-0.28624,-0.32194,-0.29043,-0.21318,-0.15229,-0.13771,-0.15235,-0.11981,-0.12111,-0.10686,-0.1229,-0.15339,-0.17396,-0.10841,-0.11142,-0.16446,-0.16511,-0.21974,-0.20911,-0.1376,-0.12714,-0.09607,-0.071638,-0.037838,0.0071761,0.043413,0.048535,0.055681,0.023813,-0.02301,-0.019773,-0.021156,-0.079533,-0.075063,-0.020148,-0.069282,0.0084183,0.022123,0.092255,0.12998,0.14699,0.20084,0.23296,0.22601,0.19185,0.16217,0.15746,0.16775,0.093436,0.10499,0.11077,0.13683,0.16606,0.2167,0.23443,0.28013,0.33253,0.42926,0.45377,0.50903,0.45526,0.41506,0.35507,0.39791,0.41377,0.44229,0.37971,0.35005,0.31447,0.38865,0.44453,0.5326,0.58772,0.62062,0.72585,0.74589,0.75318,0.71865,0.71023,0.73361,0.75055,0.73103,0.6871,0.61588,0.62617,0.63618,0.71397,0.73982,0.76159,0.8935,1.004,1.0762,1.0794,1.0352,0.95355,0.84379,0.88026,0.86966,0.88485,0.79744,0.90253,0.95158,1.1854,1.2711,1.329,1.2437,0.83981,-0.30284,-0.49361,-0.29461,0.35862,0.55823,0.82172,1.8731,2.2985,2.0925,1.9613,2.0669,1.6945,1.3922,0.75157,0.33972,0.080737,-0.13087,-0.87347,-1.3988,-1.9429,-2.1714,-2.2687,-2.3601,-3.1346,-2.8944,-2.3898,-1.8139,-0.73131,-0.59833,-0.72468,-1.548,-1.7141,-1.2865,-0.94729,-0.87028,-0.91546,-0.95287,-1.2794,-1.3721,-1.3503,-1.2523,-1.1238,-1.1078,-1.1156,-1.2602,-1.2698,-1.2507,-1.2867,-1.2335,-0.90762,-0.85902,-0.90383,-1.0494,-1.1122,-1.196,-1.1374,-1.2809,-1.2537,-0.92322,-0.95843,-1.0139,-1.1629,-1.2026,-1.1839,-1.2229,-1.2443,-1.2077,-1.0952,-1.3774,-1.4423,-1.5603,-1.3908,-1.3529,-1.2333,-1.1392,-1.1167,-1.17,-1.1982,-1.0885,-0.95057,-0.32473,-0.28522,-0.19036,-0.11557,-0.098052,-0.10756,-0.015441,0.015226,0.024151,0.03957,0.052519,0.16462,0.18351,0.24627,0.17473,0.099164,-0.02922,0.052412,0.11365,0.17855,0.21497,0.23669,0.27844,0.38574,0.3838,0.4598,0.4732,0.49701,0.55254,0.61307,0.66321,0.61033,0.5318,0.42171,0.4563,0.532,0.59539,0.62704,0.72721,0.78315,0.82642,0.89235,0.92088,0.93282,1.0052,1.0728,1.0924,1.0495,0.97993,0.94268,0.96586,1.0596,1.1036,1.1209,1.1454,1.1779,1.2435,1.3221,1.4098,1.4235,1.4711,1.4446,1.4804,1.5239,1.569,1.4906,1.4308,1.406,1.477,1.6238,1.8408,1.9638,1.6789,1.5988,1.3414,0.40182,0.39961,0.30663,0.82746,1.0742,1.3469,1.803,2.1601,2.8752,2.7282,2.1878,1.4188,0.93403,0.33213,-0.88196,-1.8198,-1.5507,-1.3228,-1.5501,-1.5436,-3.1438,-3.9891,-3.2051,-2.5862,-1.5487,-1.3191,-1.3159,-1.7936,-2.0076,-2.0046,-1.3137,-0.8293,-0.44313,-0.59518,-1.3349,-1.6564,-1.7916,-1.6647,-1.2286,-1.0814,-1.2777,-1.6459,-1.6535,-1.6447,-1.5571,-1.4783,-1.3761,-1.2825,-1.1574,-1.1502,-1.1886,-1.3062,-1.4123,-1.4955,-1.4441,-1.4367,-1.3976,-1.3902,-1.3483,-1.3753,-1.367,-1.2956,-1.3805,-1.3562,-1.3428,-1.3312,-1.3464,-1.373,-1.4236,-1.2679,-1.2117,-1.2515,-1.3032,-1.4984,-1.6398,-1.7225,-1.632,-1.4865,-1.1889,-0.96598,-0.83965,-0.8961,-0.43216,0.072,1.1016,1.6189,1.5994,1.1571,0.74004,0.73286,0.88646,1.0881,1.3817,1.6217,1.825,1.8487,1.6351,1.4738,0.84908,0.50743,0.30328,0.67173,1.7997,2.23,2.9753,2.6564,2.1268,1.3123,0.91804,0.79585,0.39129,0.2883,0.44033,0.62594,1.0952,1.2641,1.3384,1.3269,1.2491,1.0552,0.98496,0.86846,0.82264,0.72375,0.63878,0.59097,0.59573,0.64924,0.6796,0.71916,0.65939,0.63451,0.6581,0.6095,0.5448,0.46536,0.46236,0.47585,0.43021,0.44493,0.34711,0.28033,0.2894,0.30599,0.321,0.34087,0.3079,0.29658,0.31731,0.29869,0.23829,0.16561,0.095611,0.07458,0.16763,0.18711,0.12549,0.033576,-0.012517,-0.051892,0.0074423,0.048346,0.063048,0.0011123,0.0042722,-0.0014364,0.0084716,0.0021209,-0.069826,-0.12361,-0.12621,-0.096474,-0.082982,-0.14403,-0.19124,-0.21515,-0.20174,-0.14512,-0.17692,-0.16576,-0.17884,-0.16159,-0.16508,-0.13221,-0.24845,-0.27693,-0.279,-0.22952,-0.23407,-0.22593,-0.21588,-0.2842,-0.32116,-0.33416,-0.31322,-0.31724,-0.33423,-0.33365,-0.2696,-0.20968,-0.2194,-0.2332,-0.32387,-0.37407,-0.35044,-0.25038,-0.28252,-0.30327,-0.35154,-0.33974,-0.27877,-0.26263,-0.26919,-0.24228,-0.22976,-0.23413,-0.17768,-0.23338,-0.3157,-0.32393,-0.35919,-0.29734,-0.30294,-0.23088,-0.2792,-0.24304,-0.25788,-0.30032,-0.2539,-0.22796,-0.22942,-0.20868,-0.21037,-0.23603,-0.22562,-0.27084,-0.29926,-0.29159,-0.29827,-0.23898,-0.23574,-0.23845,-0.22737,-0.23806,-0.21598,-0.21195,-0.1815,-0.14338,-0.11858,-0.055653,-0.12361,-0.1541,-0.23025,-0.24842,-0.27165,-0.20767,-0.15232,-0.11419,-0.10855,-0.090391,-0.065446,-0.08315,-0.12081,-0.089075,-0.046885,-0.05551,-0.0035991,-0.043018,-0.041489,-0.074191,-0.084756,-0.070311,-0.080202,-0.064788,-0.056779,-0.012128,0.0086822,0.029432,0.037468,0.032617,0.029035,0.039553,0.027131,0.038567,0.059433,0.029596,0.0028642,-0.036473,0.0092371,-0.0049749,0.0089334,0.019995,0.068138,0.087683,0.10205,0.070559,0.026634,0.023745,0.070011,0.11831,0.090509,0.10865,0.081561,0.026571,0.021405,0.031585,0.047105,0.061131,0.074595,0.090369,0.069391,0.077296,0.11047,0.065395,0.098637,0.13834,0.11558,0.11636,0.13465,0.078359,0.059244,0.053791,0.094277,0.10838,0.15994,0.1748,0.15273,0.16349,0.13313,0.15919,0.14908,0.14405,0.14747,0.15388,0.12077,0.14139,0.12147,0.10406,0.097638,0.10362,0.084682,0.13374,0.14893,0.16106,0.16755,0.16572,0.15598,0.074412,0.10349,0.13736,0.10999,0.11111,0.10183,0.047774,0.10021,0.093418,0.13612,0.11482,0.13189,0.11299,0.12168,0.15693,0.15193,0.13996,0.16191,0.11574,0.082811,0.089575,0.093936,0.051192,0.034711,0.054064,0.080309,0.088357,0.10579,0.12342,0.17152,0.13965,0.10521,0.060606,0.082386,0.065366,0.054365,0.12482,0.098765,0.10695,0.069637,0.085611,0.035361,0.099719,0.074395,0.093677,0.10995,0.11774,0.11833,0.11391,0.10343,0.052928,0.10213,0.05382,0.057719,0.072864,0.05162,0.047319,-0.0072316,0.012365,0.010993,0.026109,0.078992,0.091818,0.06156,0.058162,0.051413,0.071126,0.049519,-0.0065671,-0.017811,-0.0092036,0.04404,0.094043,0.051827,-0.00023575,0.018161,0.021814,0.04012,0.058376,-0.0036535,0.029832,0.023096,0.013925,0.030057,-0.028559,-0.020736,-0.029186,-0.01519,0.0088782,-0.0108,-0.018769,-0.037674,-0.014728,0.031042,0.014769,0.065683,-0.0031546,-0.048262,-0.02167,-0.033375,-0.021089,-0.050797,-0.10923,-0.11371,-0.094056,-0.06712,-0.02239,0.0041587,-0.049523,-0.086509,-0.071896,-0.051647,-0.0099632,-0.016697,-0.030136,-0.075197,-0.12606,-0.11431,-0.14708,-0.17117,-0.16975,-0.14448,-0.083802,-0.074793,-0.11869,-0.16762,-0.12694,-0.10718,-0.089631,-0.056254,-0.070599,-0.11996,-0.099852,-0.11607,-0.17727,-0.17896,-0.23244,-0.2244,-0.23116,-0.24025,-0.16036,-0.13626,-0.14032,-0.12686,-0.10437,-0.09273,-0.13449,-0.15501,-0.17232,-0.18406,-0.20154,-0.23259,-0.23395,-0.24901,-0.23337,-0.23235,-0.20562,-0.16646,-0.2029,-0.19646,-0.17409,-0.1876,-0.1837,-0.16513,-0.18916,-0.20442,-0.21361,-0.16247,-0.23184,-0.29698,-0.3051,-0.31814,-0.28066,-0.25387,-0.20867,-0.20313,-0.18386,-0.15346,-0.10007,-0.10576,-0.16443,-0.22551,-0.23625,-0.2422,-0.22453,-0.25816,-0.28624,-0.32194,-0.29043,-0.21318,-0.15229,-0.13771,-0.15235,-0.11981,-0.12111,-0.10686,-0.1229,-0.15339,-0.17396,-0.10841,-0.11142,-0.16446,-0.16511,-0.21974,-0.20911,-0.1376,-0.12714,-0.09607,-0.071638,-0.037838,0.0071761,0.043413,0.048535,0.055681,0.023813,-0.02301,-0.019773,-0.021156,-0.079533,-0.075063,-0.020148,-0.069282,0.0084183,0.022123,0.092255,0.12998,0.14699,0.20084,0.23296,0.22601,0.19185,0.16217,0.15746,0.16775,0.093436,0.10499,0.11077,0.13683,0.16606,0.2167,0.23443,0.28013,0.33253,0.42926,0.45377,0.50903,0.45526,0.41506,0.35507,0.39791,0.41377,0.44229,0.37971,0.35005,0.31447,0.38865,0.44453,0.5326,0.58772,0.62062,0.72585,0.74589,0.75318,0.71865,0.71023,0.73361,0.75055,0.73103,0.6871,0.61588,0.62617,0.63618,0.71397,0.73982,0.76159,0.8935,1.004,1.0762,1.0794,1.0352,0.95355,0.84379,0.88026,0.86966,0.88485,0.79744,0.90253,0.95158,1.1854,1.2711,1.329,1.2437,0.83981,-0.30284,-0.49361,-0.29461,0.35862,0.55823,0.82172,1.8731,2.2985,2.0925,1.9613,2.0669,1.6945,1.3922,0.75157,0.33972,0.080737,-0.13087,-0.87347,-1.3988,-1.9429,-2.1714,-2.2687,-2.3601,-3.1346,-2.8944,-2.3898,-1.8139,-0.73131,-0.59833,-0.72468,-1.548,-1.7141,-1.2865,-0.94729,-0.87028,-0.91546,-0.95287,-1.2794,-1.3721,-1.3503,-1.2523,-1.1238,-1.1078,-1.1156,-1.2602,-1.2698,-1.2507,-1.2867,-1.2335,-0.90762,-0.85902,-0.90383,-1.0494,-1.1122,-1.196,-1.1374,-1.2809,-1.2537,-0.92322,-0.95843,-1.0139,-1.1629,-1.2026,-1.1839,-1.2229,-1.2443,-1.2077,-1.0952,-1.3774,-1.4423,-1.5603,-1.3908,-1.3529,-1.2333,-1.1392,-1.1167,-1.17,-1.1982,-1.0885,-0.95057,-0.71987,-0.47928,-0.32033,-0.10797,0.34979,0.50794,0.59921,0.93996,1.2249,1.4561,1.6152,1.5862,1.3736,0.55705,0.28122,0.3966,0.67876,0.94307,1.111,1.0847,0.64735,0.8001,1.2981,2.3415,2.5726,2.2244,1.5997,0.71622,0.53191,0.49167,0.61142,0.66843,0.71593,0.77726,0.96016,1.0206,1.0015,0.9868,0.97593,0.97469,0.95908,1.0124,0.96902,1.0104,0.91641,0.86724,0.78817,0.73258,0.6183,0.63055,0.61602,0.61441,0.60339,0.6565,0.74314,0.78216,0.68286,0.54927,0.43775,0.45417,0.47289,0.52254,0.50146,0.45393,0.40629,0.33652,0.27638,0.29429,0.32881,0.32221,0.37512,0.44819,0.39202,0.27841,0.18777,0.17191,0.20933,0.197,0.23923,0.21209,0.13297,0.097165,0.07193,0.048302,0.027746,0.028476,0.06291,0.11246,0.13384,0.096964,0.016567,-0.057735,-0.08533,-0.068768,-0.045071,-0.083005,-0.073694,-0.068803,-0.091211,-0.1106,-0.17212,-0.19317,-0.18766,-0.11281,-0.069264,-0.063122,-0.14782,-0.25888,-0.31094,-0.31482,-0.25129,-0.23066,-0.23625,-0.22105,-0.23841,-0.21255,-0.22925,-0.25655,-0.31289,-0.33833,-0.29823,-0.26323,-0.23399,-0.32261,-0.34664,-0.37359,-0.28851,-0.28962,-0.24066,-0.27898,-0.32579,-0.32835,-0.33117,-0.34923,-0.41546,-0.39532,-0.3779,-0.33816,-0.2442,-0.29488,-0.38081,-0.38585,-0.42581,-0.43346,-0.4022,-0.3893,-0.3891,-0.34837,-0.33802,-0.33803,-0.36037,-0.39186,-0.40343,-0.3815,-0.34606,-0.36933,-0.39359,-0.39744,-0.45383,-0.40113,-0.3654,-0.33722,-0.36149,-0.35207,-0.33374,-0.35198,-0.2815,-0.30963,-0.30497,-0.27863,-0.28761,-0.29563,-0.25617,-0.28151,-0.30822,-0.3444,-0.31513,-0.27892,-0.25486,-0.23982,-0.21851,-0.1521,-0.13221,-0.14202,-0.17676,-0.17479,-0.1767,-0.15388,-0.1671,-0.17189,-0.16044,-0.17123,-0.18727,-0.15209,-0.11998,-0.099274,-0.078586,-0.046056,0.022716,0.0050103,-0.014655,-0.054405,-0.11924,-0.11831,-0.099733,-0.089353,-0.098122,-0.074954,-0.070603,-0.043637,-0.045975,0.016014,-0.0011608,0.026551,0.066974,0.065869,0.071516,0.042336,0.037069,0.012152,-0.023065,0.025027,0.02713,0.054676,0.051264,0.066956,0.060277,0.05152,0.10677,0.16354,0.1982,0.27487,0.30406,0.26526,0.19197,0.15058,0.12845,0.12705,0.1303,0.1263,0.12053,0.16335,0.18557,0.21219,0.23086,0.20757,0.22976,0.26826,0.34605,0.36514,0.3488,0.34139,0.3025,0.24837,0.20494,0.20022,0.19386,0.19372,0.20715,0.22936,0.24778,0.25727,0.30391,0.36109,0.3665,0.36364,0.37107,0.34716,0.307,0.27115,0.24875,0.23545,0.18879,0.22007,0.26249,0.3118,0.29587,0.30355,0.26824,0.23984,0.26436,0.33488,0.39529,0.42621,0.36663,0.32945,0.29593,0.23407,0.21496,0.20242,0.20053,0.24684,0.26117,0.23262,0.26696,0.26329,0.27057,0.2922,0.31767,0.25817,0.28744,0.29962,0.23132,0.26848,0.23934,0.18351,0.17168,0.13717,0.14781,0.1197,0.15427,0.14469,0.17453,0.17955,0.15845,0.17448,0.18135,0.13876,0.12098,0.13062,0.13426,0.10141,0.077607,0.06959,0.038779,0.010835,-0.025397,0.00043027,0.058888,0.049934,0.05032,0.057227,0.029298,-0.00046276,0.0011251,0.065297,0.041839,0.0065038,0.00414,-0.04969,-0.051749,-0.043437,-0.039193,-0.083622,-0.10072,-0.081891,-0.094421,-0.10121,-0.17508,-0.13172,-0.080769,-0.034105,-0.034621,-0.090246,-0.12804,-0.19834,-0.17636,-0.17212,-0.16363,-0.16515,-0.17956,-0.20003,-0.21986,-0.23752,-0.28853,-0.29374,-0.28166,-0.32668,-0.33571,-0.29329,-0.31624,-0.28098,-0.27286,-0.24603,-0.2699,-0.26384,-0.30785,-0.32624,-0.38421,-0.40647,-0.39439,-0.37928,-0.41932,-0.3935,-0.34616,-0.34123,-0.33199,-0.35708,-0.35676,-0.37701,-0.33755,-0.32573,-0.3232,-0.33479,-0.35363,-0.41133,-0.43807,-0.471,-0.45959,-0.45335,-0.37296,-0.33663,-0.2846,-0.31245,-0.33967,-0.37086,-0.34405,-0.3332,-0.32135,-0.32295,-0.37252,-0.42576,-0.41095,-0.40837,-0.44968,-0.47255,-0.44783,-0.3734,-0.28413,-0.26319,-0.2581,-0.28554,-0.27201,-0.3073,-0.32816,-0.31857,-0.28629,-0.26104,-0.2753,-0.3012,-0.3823,-0.42969,-0.44193,-0.35383,-0.25061,-0.14621,-0.12619,-0.12669,-0.18859,-0.16451,-0.15342,-0.13597,-0.13012,-0.17238,-0.10818,-0.1589,-0.15668,-0.17995,-0.26057,-0.22056,-0.16982,-0.11347,-0.001345,0.085244,0.079198,0.094984,0.12625,0.14359,0.089595,0.054693,0.085656,0.079268,0.096961,0.049184,0.014648,-0.095655,-0.060189,0.058256,0.20838,0.3561,0.42732,0.38252,0.36736,0.30178,0.32151,0.36916,0.33125,0.32713,0.35622,0.36257,0.29716,0.18618,0.16197,0.23289,0.34702,0.50701,0.60667,0.66603,0.71943,0.67877,0.65641,0.67475,0.68042,0.67686,0.67287,0.62203,0.57373,0.49025,0.4166,0.41932,0.5648,0.73927,0.8957,1.0106,1.0159,0.96145,0.99752,1.0157,1.0304,0.99455,0.95316,0.94625,0.882,0.84842,0.78822,0.76288,0.83244,0.94149,1.1238,1.2238,1.237,1.2262,1.2096,1.2167,1.2733,1.2847,1.3197,1.2778,1.1904,1.1067,0.9465,0.45323,0.55707,0.98526,0.71412,0.56134,0.12719,-0.13803,0.33937,0.042658,0.056884,1.6142,2.5167,2.7629,2.7504,2.1507,2.4817,2.3478,3.4412,2.5356,1.6624,0.068124,-0.82346,-1.5412,-1.7843,-1.4868,-1.5238,-1.6292,-3.0206,-3.5406,-3.8087,-3.4994,-2.3125,-1.8583,-1.6457,-1.5116,-1.599,-1.6476,-1.6236,-1.5014,-1.2095,-1.0507,-1.1144,-1.2675,-1.5099,-1.377,-1.3287,-1.6348,-1.8045,-1.8314,-1.7919,-1.7643,-1.8249,-1.8377,-1.692,-1.5291,-1.5113,-1.3952,-1.2905,-1.1729,-1.2859,-1.5328,-1.5905,-1.6496,-1.6036,-1.5722,-1.5856,-1.6384,-1.6053,-1.5572,