18.825,112.96,-72.104,-296.81,-392.31,-546.09,-686.97,-699.53,-407.35,-219.66,-133.4,-132.19,-335.77,-573.12,-484.3,-251.6,-209.51,-222.67,-233.61,-219.83,-353.09,-442.95,-492.53,-571.15,-661.32,-556.66,-344.17,-298.78,-580.8,-657.52,-806.49,-869.4,-851.89,-801.29,-733.83,-738.25,-1055.9,-1106.5,-1050.5,-1123.9,-1019.5,-950.7,-861.81,-710.03,-597.17,-553.24,-574.37,-603.69,-422.87,-182.52,-181.73,-273.97,-258.12,-308.13,-348.11,-362.77,-395.38,-266.89,-52.149,201.97,522.93,462.84,181.77,31.45,-177.86,-124.44,-40.609,-140.05,43.461,127.73,64.965,70.234,102.95,-110.08,-227.92,-139.57,265.16,272.7,-312.36,-461.35,-238.8,-100.19,28.217,67.693,143.87,152.4,65.834,74.71,123.57,87.523,170.46,472.59,611.95,492.34,487.1,717.93,1015.2,738.93,388.17,452.86,390.88,378.1,570.74,487.77,316.93,295.6,380.15,626.51,831.8,727.14,224.11,-127.79,30.365,361.84,278.7,-122.4,-409.43,-115.9,321.56,373.13,-37.114,-88.288,-5.9419,149.57,-66.377,-287.81,252.71,821.47,682.78,-40.034,-368.68,-153.94,106.89,-181.34,-657.32,-460.47,-21.913,66.307,-130.31,-431.03,-469.52,-180.47,200.09,284.29,49.451,-133.14,-85.716,-204.76,-263.89,-193.03,-3.2927,-89.303,-380.53,-559.46,-499.88,-434.27,-166.3,122.51,194.21,279.76,519.97,370.12,55.192,-0.070047,164.57,145.27,52.574,-20.708,-45.964,-50.884,-76.748,-205.59,-212.14,-82.923,92.712,400.39,614.17,505.06,750,1044.4,324.6,-383.09,-580.08,346.42,839.34,699.92,492.54,369.83,669.87,676.11,632.35,654.3,609.29,609.87,466.24,433.62,565.25,526.49,439.35,467.27,547.87,422.84,103.77,-70.653,-92.05,-246.2,-353.66,-130,79.468,-38.117,24.247,25.026,118.48,-27.711,-214.82,-103.26,80.015,164.44,408.23,552.4,454.85,147.58,-106.85,-81.101,24.242,298.87,510.87,447.62,260,-19.142,-215.67,380.73,958.82,808.19,69.596,-570.16,-818.68,-467.41,-23.607,216.85,433.26,190.77,77.501,87.173,116.8,119.09,23.189,-19.281,-81.215,-105.3,8.8207,233.79,304.68,172.74,-186.13,-176.2,-312.31,-401.62,-141.08,-125.79,-430.44,-702.43,-774.11,-832.35,-713.05,-647.96,-597.37,-540.97,-566.33,-924.39,-1071.7,-1150.6,-1077,-842.68,-1050.2,-1412.6,-1470.7,-1253.6,-676.14,-201.29,-200.41,-327.25,-635.35,-731.94,-699.86,-782.41,-552.07,-600.65,-699.89,-426.62,-182.94,-122.95,-166.66,-193.45,-285.7,-364.07,-271.4,-33.889,19.087,-169.66,-212.85,-333.16,-600.23,-700.71,-484.07,-229.25,20.279,187.91,52.927,-80.04,-770.83,-1222.7,-1008,-737.16,-583.17,-304.81,-284.14,-312.81,-316.95,-299.04,-424.09,-645.59,-488.69,-253.42,-141.91,-118.85,-196.41,-691.31,-597.65,-135.29,234.81,491.92,448.98,291.27,564.44,813.48,823.68,843.89,1224.3,1521.2,874.02,54.47,-235.96,-428.08,-518.45,-111.14,505.99,951.72,1079.8,702.97,509.46,508.31,783.25,1086.4,1453.4,1707,1609.3,1037.7,699.34,859.88,750.18,758.47,946.94,1214.7,1215.8,1078.9,1040.5,987.77,650.44,786.86,1242.7,1311.2,1123.8,848.97,819.39,654.31,46.524,-228.92,134.88,721.47,1012.7,814.67,463.06,431.11,551.44,304.25,613.1,1211,777.73,228.32,660.04,506.18,-199.21,-616.27,-357.64,296.64,543.32,573.65,664.52,507.23,388.33,265.49,171.12,252.48,367.86,426.45,285.02,32.027,20.608,-23.379,-433.69,-534.62,-462.8,-242.81,-12.696,241.66,191.82,126.21,242.8,345.56,428.48,352.67,338.48,421.54,219.53,-193.99,-321.81,-605.56,-481.77,-356.16,-317.04,-385.7,-437.06,-394.13,-854.96,-956.6,-491.89,-210.61,-500.4,-666.4,-812.19,-1175.9,-1441.8,-1337.8,-1113.7,-948.33,-802.84,-698.19,-692.21,-778.1,-728.35,-566.14,-268.22,-228.63,-752.34,-516.6,-17.178,-477.99,-852.1,-787.2,-637.4,-583.13,-334.72,-319.63,-399.05,-341.57,-444.34,-405.49,-642.22,-462.82,202,191.27,-286.84,-302.99,-162.43,-319.14,-214.11,-81.334,-403.36,-462.26,-323.25,-446.13,-405.95,-488.3,-635.06,-804.42,-753.46,-384.66,-222.91,-352.31,-501.39,-600.03,-419.94,-355.2,-434.78,-470.53,-568.63,-568.56,-683.36,-793.16,-853.63,-949.22,-969.2,-890.29,-763.53,-682.93,-681.94,-644.02,-427.57,-193.97,-51.909,-101.13,-296.93,-599.7,-865.58,-884.06,-993.54,-1012.9,-301.64,139.43,-79.775,-200.06,134.93,346.34,529.33,1047,1047,556.19,302.34,-16.159,-299.64,-380.95,-234.67,-15.697,-93.023,-31.965,157.72,460.6,977.98,1028.2,189.12,-412.31,177.65,1358.1,1896.8,1564.6,1227.5,914.19,844.68,1025.3,818.99,447.45,413.41,457.23,331.94,303.19,405.78,604.73,1122.9,1614.8,1757.3,1762.3,1498.3,936.65,641.58,546.02,737,899.6,853.72,814.32,864.59,845.41,741.06,743.36,1144.6,1748.7,2306.1,2482.2,2087.1,1319.6,456.39,60.213,223.65,332.78,414.3,562.88,386.93,253.78,-91.074,-488.7,-540.78,-190.21,581.79,1395.5,1413.6,947.14,330.75,-41.847,-42.891,285.87,517.59,292.9,-98.265,-430.85,267.25,697.61,279.07,17.68,383.01,510.27,883.56,1315,1605.5,1318.8,302.41,-466.89,-460.55,-90.167,-6.7801,-268.76,-768.51,-1249.4,-1540.5,-1188.3,-372.19,203.02,776.43,1183,966.41,122.95,-643.52,-1096.2,-1076.4,-651.3,-405.19,-555.73,-836.06,-1298.8,-1753.2,-1911.9,-1518.2,-376.63,912.34,1703.3,1737.6,988.47,-61.212,-964.28,-1225.9,-794.85,-388.37,-331.89,-755.29,-1301.7,-1806.1,-2130.4,-1891.1,-1046.8,-124.57,785.01,1336.9,1224.5,298.99,-724.38,-1120.2,-860.03,53.552,830.25,752.87,50.489,-507.84,-645.5,-299.34,-172.59,-136.3,424.12,1237,1084.4,-66.993,-1609.1,-2420,-2005.5,-1248.4,-694.74,-458.35,-972.22,-2262,-3387.3,-3794,-3518.5,-2966.6,-2021.4,-1520.8,-1586.3,-1800.8,-1863.1,-1440.7,-513.09,199.68,981.23,1518.8,1673.5,1314.7,-472.31,-2058.8,-2278.7,-2149.6,-868.31,1005.9,1713.5,987.68,-932.54,-3441,-4746.8,-4398.9,-2626.4,-759.58,243.45,754.69,1829.8,3823.6,6087.4,5106.7,792.9,-4772.3,-10048,-14094,-14442,-9512.2,-2536.7,2288.5,3143.6,2767.1,2060.3,1038.4,1475.9,2504.3,3452.8,4416.4,5441.8,5555.8,4647.8,2973.2,255.61,-2469.2,-1602.9,781.43,696.82,-279.59,699.9,3711.9,5474,4462,1248.4,-3628.1,-5721.7,-3996,-2109.4,-1433.1,504.99,4960.1,8410.7,8154.7,5537.6,2950,936.57,-29.93,597.26,1961.1,1635.2,181.13,-1173.5,-1664.7,-729.24,1612.9,3784,5044.9,5359.5,4313,1714.2,-15.38,-126.75,-241.87,-1575.9,-3195.2,-2915.5,-783.77,1443.6,4420.3,6863.6,6669.7,3957.1,-3012.7,-11390,-13580,-7460.3,3310.7,9283.5,7540.9,2791.3,-3078.1,-6978.5,-5083.3,2543.9,9469.4,11361,11252,9519.7,7365.2,5481,3914.3,4010.5,5924.9,5692.9,4693.6,5840.9,6901.6,6487.1,4178.7,2533.4,3334.3,3250.4,2561.9,2306.3,2827.9,1543.2,-4014.2,-9121.9,-7029.1,-1469.8,3930.6,6075.2,6257.1,1970.5,-4867.3,-5927.6,-1051.8,2398.4,33.348,-4151.2,-5340,-3829.9,-2152.6,-2816.6,-5881.5,-8292.9,-9433,-9262.4,-6191.3,-4028.5,-3548.2,-1875.4,-1170.8,-3309.7,-4252.8,-4536.1,-3971.1,-1381.6,1223.3,3967,5607.5,5511.9,3634.4,-546.4,-5352.6,-7915.8,-5998.4,-3401.4,-5337,-8345.6,-9344.8,-11327,-13345,-12945,-11173,-7741.8,-3702.8,-287.47,1313.5,848.14,188.43,76.527,1742.7,4896,5781.8,3229.3,-450.61,-3395.7,-6537.3,-7650.5,-4933.8,-2219.9,-1382.3,-1723.1,-2118.7,-4665.8,-7093.3,-7122.1,-6768.1,-5404.3,-6676.5,-12575,-15130,-9774.5,-3597.9,-1474.6,-2506.8,-2396.5,-699.96,3485.9,7398.2,8279.1,6554.3,381.19,-8004,-12250,-9170.5,-1305.1,4289.3,5905,7073,5661.5,2603.4,2041.3,3123.9,4186,4590.3,2816.4,126.05,-1216.7,-1390.6,-1341.3,1852.3,5821.7,6750.7,6484.3,6567.8,6332.8,5102.4,3290.6,1161.1,266.57,3632.4,5815.7,6184.2,5246.5,4093.8,3146.2,2549.3,4768,7031.8,5775.5,5108.8,5710.2,7726.5,9043,9689.7,10063,7564.7,5311.9,6460.7,8394.6,7908.4,7876.8,8128.6,6169.4,5159.1,3931.4,1720.6,1850.6,3192.6,6296.2,10216,12555,12278,10697,7852.1,5936.2,4945.4,3048.3,2172.5,2734.4,3654.9,4374.9,3807,4721.1,7549.3,6399.6,2196.5,-1625.6,-3546.2,-5008.6,-6300,-6656.4,-1894.1,5065.6,6168.5,3487,4008.9,4711.2,2279.3,458.68,-320.9,-2247.8,-3234.2,-2505.3,-2062.4,-2339.4,-3185.3,-2387,-1690,-1343.9,-634.88,-1123.9,-2580.8,-3665.4,-2272.9,-1139.6,-1609.2,-2562.8,-3992.1,-4890.8,-3650.3,-4169.1,-5731.1,-7021.1,-7786.4,-7779.1,-8758.2,-8777.5,-7948.4,-6231.9,-6269.3,-6654.4,-6873.5,-7330,-7852.7,-7754.7,-7156.8,-6793.4,-5389.2,-5273.4,-8011.8,-12145,-14547,-14383,-13353,-13955,-13520,-11540,-10965,-8897.4,-5651.5,-6289,-11123,-13158,-12804,-11317,-8988,-7981.2,-7980.6,-9111.9,-10304,-10706,-10306,-10739,-12778,-14730,-15036,-12669,-10428,-9705.9,-9205.8,-8682.2,-7485.9,-5501.4,-2887.7,406.56,1852.6,1150.8,1187.4,2688.1,4783.9,5856.2,6576.9,7507.5,8271.7,8345,7888.5,7956.5,9333.2,10334,9738.4,10433,13352,15505,16239,16149,16202,16530,17346,17544,16887,16050,15765,16219,15116,12517,10540,8875.2,7407.5,6836.2,7557,11039,14684,15512,15125,12857,10287,10069,10974,10504,9147.8,9261.4,10219,9208.2,7375.9,6549.1,6709,6614.3,6538.4,5879.2,4068.3,1526.2,158.67,2005.2,4568.7,6425.4,6553.3,4497.3,2023.9,792.27,-197.26,-813.56,-31.606,1089.3,2322.6,1816.1,-1319.2,-3618.1,-3242.8,-3332.4,-6039.7,-8151.8,-8625.1,-9201.4,-7319.7,-5653.6,-5683.9,-5860.8,-7582.2,-7617,-5843.8,-2471.8,189.54,-603.46,-2757.6,-4625.1,-6083.3,-7387.3,-9704.2,-11582,-8948.9,-2043.5,3282.4,3277.9,-926.87,-5770,-8895.4,-10686,-9217.3,-7081.6,-6722.9,-6695.3,-5803.9,-4140.6,-3415.7,-3118.2,-3392.4,-4411.6,-6481.3,-7033.3,-5246.1,-4046.7,-4274.4,-4388.6,-4049,-3761.6,-3644.3,-4168.1,-4516.2,-4577.8,-5357,-5079,-3910.4,-3663.4,-5099.1,-5476,-4104.4,-2161,-1182.4,-1802.7,-3572.8,-4480.8,-3838.9,-2904.4,-2443.7,-2228.4,-2511.2,-2823.1,-3148.9,-3625,-3948.3,-3267.8,-2396,-1703.7,-508.25,977.15,172.34,-2633.6,-3705.2,-3080.4,-3145.9,-2543.1,-293.18,2346.1,2476.5,1028.9,646.28,216.82,-914.34,-1099,-920.09,-407.82,1781.5,2885.3,1740.8,768.2,722.56,630.61,852.94,-93.894,-113.53,1798.5,3660.1,4366.9,4492.4,3131.4,2603.4,3129.9,3504,3112.7,1579.3,753.63,564.22,789.76,2077.6,2776.4,3666.2,3066.9,1977.4,3403.7,4702.3,3379.3,1628.7,1650.1,2714.7,3374.5,3963.1,3815.9,3459.6,3445.6,4558.4,4932.1,4609.6,4034.7,4056.1,4584.7,5200.8,6417.4,6689.6,4903.9,3054.6,1330.7,287.21,-197.41,754.41,1763.1,2285.3,3189.3,3386.6,3612.2,3017.2,1644.2,861.46,1478.2,984.06,844.17,2722.8,5684.3,5860,4730,4549.3,3721.3,2897.1,2328.1,2218.8,2145.8,1899.9,1119.9,699.73,970.46,2093.3,2829.9,2658.5,1932.7,2412.7,2790,2632.8,1658.2,663.73,216.59,-238.61,-801.48,-1099.3,-1296.3,-1045,208.92,1428.9,1134,182.1,-710.09,-1736,-1146,-6.0553,-186.43,-391.63,-246.97,-656.97,-980.07,-1516.8,-1907.2,-2314.4,-2505.3,-3109.6,-3154.4,-2553.6,-2205.5,-2003.5,-1970.8,-2475.6,-1971.5,-820.56,416.31,39.036,-1366.5,-2568.6,-3022.9,-2782.5,-1946.1,-1965.3,-2406.2,-2356.6,-2489.3,-3895,-4976.6,-5234.9,-5376.3,-4052.8,-652.71,1494.6,-180.73,-3617.3,-5502.7,-5406.3,-5061.9,-4681.6,-2606.7,-745.97,-244.62,-354.15,-1997.2,-3472.3,-3045.9,-2666.2,-3750.9,-4822.4,-5110.8,-3938.7,-2017.3,-1235.8,-1502,-1612.4,-1468.2,-1150.8,-1021.7,-1014,-814.98,-1395.6,-1936.8,-2052.3,-1969.1,-1994.8,-1775.3,-1574.2,-1199.5,-1184.4,-1562,-1577.2,-1433.9,-1233.7,-1310.7,-1567.9,-890.94,-643.26,-1476.5,-1604.6,-1335.8,-1216.6,-1084.1,-1066.7,-1116.1,-1021,-1225,-1806.1,-2169.8,-1879.9,-1282.9,-1397.5,-1291,-1041.3,-1167.4,-1505.4,-1614.4,-1877.9,-1879.5,-1624.1,-1229.3,-1084.3,-1134.1,-1137.8,-1251.1,-1256.1,-1136.9,-1072.4,-676.62,-318.88,-982.16,-1896.1,-2063.4,-1706.8,-1213.2,-1087.2,-1114.6,-1010.7,-1116,-1318.9,-1093.7,-721.07,-805.29,-1099.1,-1204.2,-1043.5,-914.93,-1538,-1832.7,-1479.7,-1372.4,-1564.3,-1380.6,-1030.9,-1113.9,-1693.9,-1880.9,-1691.8,-1850.2,-1675.2,-1128.6,-833.34,-915.29,-1451,-1850.1,-1502.5,-1353.3,-2229.2,-2082.7,-1153.5,-1165.2,-1812.8,-2061.1,-1683.6,-1915.2,-2027.7,-1794.7,-1615.4,-1654.6,-1578.4,-1669.9,-1770.4,-1612.3,-1379.6,-1143.9,-1092.4,-1276.6,-1341.6,-1179.5,-1137.7,-1162.7,-1204.6,-1167.9,-1180.3,-1498.5,-1455.3,-1012.2,-732.31,-1257.6,-1658.1,-1362.8,-917.07,-511.38,-614.63,-838.11,-939.03,-993.55,-1273.3,-1395.3,-1361.4,-1410.4,-1304.9,-788.96,-449.28,-688.6,-640.52,-404.15,-1006.3,-1380,-1440.5,-970.59,-488.98,-535.83,-669.36,-645.12,-613.65,-667.48,-781.65,-1071.7,-1376.8,-1771,-1713.4,-997.88,-575.72,-683.55,-758.86,-862.49,-1105,-1519.3,-1859,-1847.5,-1560.8,-1466.4,-1212,-916.2,-948.37,-983,-768.01,-1037,-1147.9,-1180.6,-1233.4,-1221.5,-1029.5,-694.75,-986,-1292.2,-1098.1,-1021.6,-980.04,-1118.5,-1373,-1703.2,-2116.7,-1587.8,-823.76,-1027.9,-1689.2,-2088.6,-1830.8,-1545.6,-1508.3,-1385.2,-1611.8,-1829.6,-1983.7,-1904.6,-1223.3,-1155.5,-1619.4,-1366,-973.88,-1271.4,-1524.4,-1424.4,-1322,-1319.1,-1239.8,-922.72,-595.21,-402.83,-331.14,-187.75,-318.92,-908.57,-1518.1,-1962.5,-2091.1,-1698.1,-1398.2,-1711.8,-2137.7,-2009.9,-1661,-1405.5,-1085.6,-1451.2,-1753.1,-1598.2,-1169.7,-813.09,-590.71,-1107.2,-2067.8,-2188.4,-1911.9,-1382.5,-971.14,-1118.3,-1383,-1589,-1698.7,-1916.7,-1794.9,-1253.1,-1030.2,-1042.7,-1010.5,-888.08,-1124.9,-1721.7,-1842.9,-1675.3,-1588.7,-1768.1,-1950.2,-1631.3,-1787.6,-2362.3,-2246.6,-1578.7,-1571.1,-1748.2,-1916.6,-1982.4,-2072.6,-1826.2,-1502.7,-1525.8,-1450.7,-1490,-1695,-1695,-1541,-1219.1,-1008.9,-1332.3,-1340.8,-1039.6,-1059,-1109,-690.59,-764.44,-621.26,-411.26,-835.57,-1394.8,-1157.6,-536.99,-307.68,-543.72,-981.4,-1445.8,-1285.4,-875.05,-726.04,-643.95,-580.3,-995.73,-1047.7,-482.7,-196.91,-272.59,-494.49,-434.97,-555.25,-931.31,-1741.1,-2346.2,-1614.6,-563.47,-480.77,-974.56,-1320.4,-1246,-1160.8,-1036.6,-1050.5,-1078.9,-877.73,-285.35,-388.5,-1150.3,-1200.1,-784.94,-681.27,-637.99,-934,-1659.9,-2009.7,-1706.1,-1446.5,-1554,-1766.2,-1582.7,-1575.2,-1759.7,-1806.8,-1703.3,-1789,-1814.3,-1551.6,-1365.4,-1509,-1600.4,-1599.3,-1589.1,-1726.3,-1645.5,-1644.3,-1463.4,-1502.7,-1539.8,-1412.3,-1264.4,-1048.9,-1353.9,-1694,-1348.4,-1221.1,-1367.5,-1169.8,-1139.5,-1334.3,-1396.7,-1290.3,-1287.3,-1300.7,-1105.5,-1170.2,-1245,-1320.2,-1236.9,-669,-614.85,-1035.6,-1215.3,-1114.3,-1216.4,-1639.2,-1949.2,-1971.9,-1709.7,-1226.1,-699.37,-768.98,-1019.2,-925.6,-1261.2,-1854.8,-2043.7,-1413.2,-924.76,-838.09,-583.79,-847.27,-2119.1,-2703.6,-2206.1,-1753.5,-1289.1,-1126,-1218.6,-1288.9,-1167.9,-1336.1,-1761.6,-2198,-2090.3,-1160.1,-572.71,-966,-1456.8,-1757.6,-1743.1,-1544.9,-1193.2,-990.14,-1099.7,-1252.7,-1448.8,-1529.8,-1794.6,-1604.6,-930.28,-983.77,-894.98,-807.73,-1040.8,-1049.3,-1313.5,-1583.4,-1444.7,-1034.8,-683.25,-743.98,-687.2,-677.97,-771.9,-963.9,-1029.3,-1037.2,-995.38,-917.34,-911.3,-956.95,-935.11,-1057.3,-1186.2,-1031.3,-885.87,-812.49,-1002.1,-1042.4,-946.98,-556.22,-391.3,-1053,-1659.2,-1805.5,-1627.5,-1472.5,-1482.3,-1638.8,-1756.6,-1694,-1629.3,-1546.7,-1625,-1788.3,-1871.1,-2162.8,-1812.9,-1433.5,-1577.6,-1725.9,-1828.7,-1651.7,-1208.1,-911.43,-1312.1,-1769.1,-1628.9,-975.94,-667.62,-1038.3,-1408.9,-1520.3,-1556,-1575.2,-1457,-1170.2,-963.19,-937.11,-981.96,-865.8,-646.5,-595.72,-1012.5,-1412.4,-1617.3,-1956,-1823.2,-1426.7,-860.79,-669.87,-1056.2,-1338.1,-1298.4,-1192.5,-1279.1,-1374,-1432.5,-1306,-959.33,-963.85,-1064.5,-1263.2,-1241.7,-1310.4,-1291,-1043.5,-837.86,-848.66,-937.97,-1004.1,-1206.2,-1573.4,-1689.8,-1592.6,-1529.7,-1554.9,-1592,-1616,-1606.1,-1802.5,-2033.7,-1865.1,-1579.4,-1348,-1177.9,-1359.6,-1648.7,-1638.3,-1879.8,-2094.3,-1951.5,-1701.2,-1310.5,-901.23,-611.67,-123.7,17.806,-587.27,-1269,-1569.1,-1358.1,-1170.1,-1164.5,-1309,-1491.3,-1732.4,-1679.1,-1440.5,-1230,-1108.3,-1285,-1471.8,-1325.5,-1207,-1141,-881.71,-617.08,-319.64,-148.2,-436,-843.85,-996.41,-842.22,-524.39,133.09,811.55,643.52,-545.06,-1637.2,-1870.7,-1638.1,-1905.6,-2846.6,-3692.6,-3730.4,-3257.1,-3078.5,-2540.7,-1549.1,-751.57,-244.51,111.82,134.45,-256.8,-1020.1,-1421.4,-1631.3,-1615.3,-1408.9,-1162.7,-1008,-931.54,-1133.9,-1501.3,-1811.4,-1892.9,-1645,-1422.4,-1483.3,-1482.5,-1816,-2059.3,-2078.5,-1788.2,-1572.2,-1479.8,-1336.7,-889.04,-531.24,-441.84,-667.37,-903.4,-681.04,-658.47,-827.87,-1237.1,-1989.5,-2598.4,-2945.3,-2666.4,-1365.2,57.105,139.97,-462.6,-916.46,-1019.4,-1854.6,-2909.3,-2805.6,-1850.7,-1353.9,-2174.9,-3455.1,-3670.7,-3705.5,-3245.7,-1426.6,-44.797,434.17,345.58,511.73,602.66,535.71,-461.29,-1790.2,-2745,-3003.4,-2274.7,-902.91,450.55,733.25,216,-73.494,-276.63,-430.29,-929.42,-1251.6,-1017.7,-874.51,-1134.1,-1393.9,-1575.2,-1264.8,174.67,1990.6,3177.5,2581,1300,176.1,-475.07,-510.58,-512.14,-790.85,-1783.9,-2866.9,-3008.4,-2534,-2980.9,-3642.4,-3126.5,-1759,-832.02,-937.8,-1216.4,-1279.8,-1427,-1745.7,-2519.4,-3546.8,-4588,-4869.6,-3797.4,-1929.2,262.93,1603.4,1017.7,216.7,308.82,-121.07,-2161.7,-4484.8,-6196.7,-6003,-3805.5,-2412.2,-1433.1,727.15,2673.6,2356.7,-211.75,-3642.8,-8038.5,-12531,-16489,-15910,-9574,-2051.6,3643.6,6083,3976.6,1128.5,-608.33,-1164.1,190.47,2321.2,3479.9,4441.8,5684.6,6471.8,6473.1,6155.8,6211.3,5079.1,2083.7,498.99,-92.008,-1292,-2638.1,-2261.6,-432.8,-391.07,-1611.8,-663.68,377.73,-701.43,-2043.9,-1742.8,-857.06,-168.04,-835.4,-1135.3,-1302.4,-1454.9,-1613.3,-725.81,526.65,1449.9,2660.8,1109.5,-1355.8,-2437.4,-1715.2,1534.2,4319.1,-994.24,-11118,-15255,-10746,-6874.6,-7512,-8502.7,-5605.3,-3093.1,-3924.7,-5039.2,-4128.6,-2106.8,934.57,2943.7,2613.6,2541.4,2454.7,585.98,-1605.8,-1684.8,-1178.5,-908.79,-2012.5,-4117.2,-6308.6,-8114,-10291,-10845,-6665.2,-930.04,915.17,1518.6,2017.3,1140.8,791.38,644.32,549.69,-676.12,-764.19,-870.85,-3040.8,-4214.2,-5296.3,-5007.8,-4656.9,-5165.4,-5159,-5837.3,-6546.8,-5750.4,-3504.4,488.19,4944.2,5800.7,2389.7,-998.43,916.96,5499,8303.4,8337.7,5410.9,1108.5,-676.43,596.87,4383.5,6081.7,3016.9,-1183.5,-4589.4,-5368.7,-3333.1,446.58,1103.3,-1440.8,-1847.7,-170.5,378.02,-1578.6,-2945.2,-1962.8,-610.1,-1136.7,-2363.3,-2037.7,858.99,1387.4,590,316.24,731.62,724.12,-1745.8,-3786.7,-6612.6,-5609.4,-728.14,3041.3,4296,2897.5,-365.94,-1333.8,1093.5,1751.3,605.71,-1978.2,-3767.9,-2948.6,-858.34,-88.362,455.42,1688.5,1430.2,-444.27,-2707.1,-6456.8,-9913,-10562,-7335.3,-3090.8,-3706.5,-2605.1,2397.7,4040.4,2478.5,22.047,-1352.6,-2196,-1369.2,422.65,1778.3,1395.4,-230.7,-1284.1,-1563,-1320.3,-602.33,-525.34,-710.23,-194.41,-37.777,-2253.7,-4160.4,-6348.8,-8983.3,-8692.8,-5812.5,-2475.6,-1078.4,-1705.3,-1367.9,-47.206,-930.09,-1193.8,-552.95,-874.69,-937.24,-64.583,-230.09,-1394.2,-1833.1,-1453.1,-662.53,-857.22,-1897.6,-2667.5,-1953,-1265.5,-1953.7,-2903.6,-3338,-3237,-5085.1,-5291.8,-1804.1,1391,2839.4,2139.3,640.55,-99.558,-784.11,-1333,-1265.2,-900.75,-1198.1,-1328.6,-899.39,-341.77,50.201,218.46,-31.94,-518.81,-1170.8,-1646.1,-2150.4,-2562.7,-2496.4,-2697.1,-3352,-3527.6,-2289.7,-591.34,-1737.2,-5309.5,-6601.2,-5620.2,-5221.4,-4076.3,-2433.5,-1035.2,652.85,1190.7,-112.44,-1075.3,-769.23,-827.18,-885.17,-325.33,132.49,887.11,1962.2,2203.7,629.09,-762.84,-1139.1,-1236.5,-1603.3,-1827.4,-1625.5,-1387.6,-880.05,104.38,521.68,-743.55,-1327.3,-2067.1,-4344.6,-5369.1,-4422.2,-1976.5,-252.13,325.02,753.69,1005.9,1542.7,1810.9,1463.6,664.02,-879.78,-3490.5,-3381.4,-1181.3,200.55,-407.55,-1246.8,-1616.8,-2749.9,-3687.4,-3159.8,-2055.7,-1316.8,-368.62,72.924,-85.739,-764.29,-1049.5,-562.53,-755.97,-702.74,-462.59,-298.21,-61.843,-356.52,-1120.9,163.9,1392.3,1757.6,1562.9,1177.8,313.74,-598.4,-1513.4,-1796.3,-1218,-1067.7,-1819.8,-2436.2,-2082,-1658.7,-1833.2,-2279.6,-3017.2,-2967,-2554,-3182.2,-3504.9,-3319.4,-2879.7,-2242.8,-746.78,123.5,413.24,146.73,56.439,-738.3,-1629,-1518.3,-2296.7,-2206.3,-1353.8,-863.78,-193.74,20.715,-1097.9,-2096.7,-2468.1,-1662.5,-547.16,222.61,439.73,-364.67,-803.12,53.528,521.82,134.9,-720.72,-1226.3,-1044,-645.73,-589.08,-1174.9,-2617,-3067,-1465.2,-357.98,-976.43,-631.4,1806.7,2979,2803.6,764.15,-2186.3,-4278,-5760.2,-5893.7,-4215.8,-1757.1,-1345.3,-1599.4,-1656.3,-1815.3,-2331.3,-2025.8,-1558.8,-2339.3,-3271.6,-2990.4,-3048.5,-3373.7,-2706.2,-1709.3,-824.59,-925.34,-1691.4,-2192.2,-2442.3,-2764.4,-2644.8,-2446.1,-1272.4,574.63,1985.6,78.84,-2367.5,-1833.2,807.02,2249.6,410.15,-2438,-3201.9,-2487.1,-2466.8,-2939,-2154.6,-1471.8,-1163.6,1.4676,-750.57,-2094.4,-2495.7,-2440.2,-2400.7,-2252.6,-1285.6,309.28,542.72,-936.61,-2235.3,-2697,-2806.7,-2546,-2254.8,-2259.2,-2696.8,-2504.1,-1841.8,-996.94,-756.48,-928.91,-1099.6,-774.01,-290.71,-28.992,-542.89,-562.99,-46.279,643.24,794.03,703.21,-577.51,-3374.6,-5702.2,-5907.6,-4736,-4511.1,-4287.5,-3029.9,-1867.1,-963.12,-866.91,-1333.7,-1254.4,-846.32,-598.94,-1023,-1005.4,-865.26,-1090,-1160.4,-1176.9,-607.17,-37.613,323.25,1043.2,1517.3,-555.57,-3539.8,-4441.2,-3268.2,-1861.3,-844.69,-31.384,803.91,1102.6,313.93,-476.52,-218.32,609.86,729.36,962.66,1013.3,990.26,762.9,-725.93,-2563.3,-2161.3,-842.28,-1095.8,-2019.3,-1792.2,-275.29,478.48,-94.292,-1572.4,-2530.9,-1838,-1313.5,-2492.4,-4333.9,-2429.5,-399.57,39.236,-607.88,-1395.7,-1355.3,-517.41,-171.4,75.321,401.89,412.2,-252.54,-1248.1,-2906.7,-3813.1,-2859.2,-2134,-929.98,999.84,1142.4,-479.24,-1891,-2432.9,-2374,-1530.9,147.56,1430.8,1109.5,140.83,17.379,-225.98,-1354.5,-2191,-1966.1,-178.56,1606.4,1434.2,-240.97,-1766.3,-3031.2,-4136.1,-3389.2,-1712.1,-952.01,-636.25,-492.04,-706.04,-1069.8,-1085.9,294.04,1492.2,978.37,-260.82,-624.43,378.36,994.74,56.313,-1293.9,-1708.8,-2440.4,-3242.7,-2341,-1817.3,-969.69,-545.1,-2293.9,-3457.5,-3219.1,-966.18,522.86,-210.18,-1654.7,-2629.7,-2976.1,-2535.2,-2811.8,-4047.6,-3865.1,-2914.1,-2218.3,-1984.8,-1550,-1004.3,-1067.2,-817.21,-771.47,-1646.6,-3013.7,-4701.7,-6035.1,-5572.5,-3987.3,-2850.7,-1784.6,-1290.2,-1472.4,-1951,-1242.7,-1000.6,-1201.2,-849.88,-175.99,42.795,-32.583,300.08,671.19,543.54,226.21,-123.58,-621.53,-1674.9,-3307.3,-4305.8,-3492.7,-3068.8,-3291.3,-2709.9,-2136.9,-1161.6,-396.57,-636.42,-914.34,-915.1,-1435,-2168.8,-2435,-1916.8,-384.47,-37.816,-1730.8,-3931.4,-5298.7,-4875.3,-3006.5,-1291,-494.7,-743.21,-1129.8,-1293.4,-1123.4,-921,-952.45,-1065.3,-1168.9,-1253.3,-1220.9,-795.18,-926.12,-1028.8,-957.37,-1060.8,-482.59,-51.792,-600.77,-1590.1,-1944.8,-1598,-1468.4,-1024.5,-694.89,-678.75,-944.08,-1105.5,-1149.1,-1313.8,-1569,-1453.9,-1122.7,-970.78,-1146,-1178.7,-1136.4,-1388.4,-1400.1,-923.55,-1043.8,-1685.5,-1796.8,-1656.5,-1822.1,-1855,-1556.1,-1563.1,-2137.2,-2647.9,-2298.1,-1330.7,-1003.6,-1241,-1748.8,-1834.4,-1592.6,-1504,-1572.4,-1598.1,-1442.2,-1069.1,-892.41,-1203.9,-1658.7,-2048.4,-2060.1,-1531.4,-1311,-1295.4,-1332.1,-1729,-1885.9,-1651.1,-1437.8,-1360.9,-1240.9,-1244.3,-1590.4,-1657.2,-1731.9,-2287.3,-2677.9,-1871.9,-966.24,-1382.6,-1666.9,-1479.3,-1456.5,-1576.7,-1504.5,-1255.1,-1255.2,-1494.2,-1613.8,-1648,-1578.3,-1503.2,-1734.2,-1992.3,-2016.1,-1568.1,-776.91,-627.08,-863.04,-913.04,-1126.5,-1365.9,-1298.1,-789.41,-484.65,-948.91,-1375.5,-1179.9,-956.95,-1070.1,-1093.2,-961.1,-718.26,-703.21,-1129.6,-1340.6,-875.78,-591.53,-911.51,-871.8,-883.11,-992.19,-764.38,-1081.8,-1595.9,-1114.2,-439.34,-376.16,-654.68,-1162.3,-1516.4,-1492.4,-1482.8,-1622.3,-1528.5,-1193.4,-858.35,-673.13,-812.7,-1457.6,-1669.6,-1118,-814.53,-764.59,-685.79,-1082.7,-1549.6,-1487,-1338.4,-1396.8,-1400.1,-897.5,-556.83,-847.17,-1195,-1440.6,-1683.7,-1399.1,-901.68,-839.87,-1011.8,-1243,-1459.3,-1465.7,-1590,-1413.7,-341.27,-146.72,-1419.5,-1689.6,-1599.2,-1779.1,-1597.4,-991.55,-575.38,-587.34,-1064.7,-1660.1,-1887.1,-2000.4,-1941.2,-2094.2,-2095.6,-1801.1,-1436.2,-992.57,-938.52,-1369.3,-1460.2,-1115,-982.26,-1180.9,-1228,-1350.2,-1701.9,-1555.1,-1041.6,-1140.3,-1522,-1741.9,-1626.9,-1035.7,-1034.1,-1613.8,-1288.7,-1252.6,-1827.6,-2208.3,-2172.7,-948.14,-610.72,-1249.1,-1318.9,-1178.7,-950.16,-826.85,-780.3,-913.59,-1087.7,-1089.5,-982.9,-853.69,-732.84,-333.76,69.729,-621.99,-1621.8,-1579.5,-1368.4,-1363.3,-1194.4,-1038.6,-1081.1,-1193.3,-919.1,-97.206,-245.54,-1315.7,-2189.4,-2016.5,-1426.7,-1072.9,-829.16,-824.34,-1038.7,-1850.4,-1919.4,-1400.1,-643.51,-610.57,-909.61,-1311.4,-1676.1,-1574.6,-1380.9,-1316.6,-1396,-1279.7,-815.78,-827.89,-1577.9,-2049.2,-1577.3,-1397.9,-572.29,-283.27,-1089.4,-1379.8,-1265.1,-1665.4,-1665,-1308.4,-1119,-921.21,-1148.5,-1363.3,-1324.5,-1583,-1837.5,-1891,-1814.5,-1378.9,-1125.5,-1169.5,-1737.9,-2374.9,-2615.1,-2192.2,-1614.8,-1356.5,-1539.8,-1780.7,-1492.4,-1311.4,-1583.3,-1408.7,-1450.2,-1819.8,-1666,-1306.8,-1378.7,-1708.4,-1834.6,-1701.6,-1882,-2293.5,-1974.1,-1567.4,-1588.8,-1588.2,-1665.4,-1836.3,-1674.6,-1710,-1447.2,-1058.9,-1419.9,-1739.8,-1893,-1741.6,-1291.5,-1013.1,-975.56,-774.84,-677.56,-1023,-1321.7,-1793.8,-2069.3,-2070.6,-1509.7,-1012.2,-1433.3,-1721.3,-1450.5,-1432.8,-1699.3,-1061.4,-432.6,-756.48,-1343.5,-1426.3,-1457.6,-1611.6,-1996.6,-1869.1,-1344.5,-675.08,-556.85,-991.64,-1521.6,-1894.1,-2140.3,-2135.4,-1613.6,-866.31,-978.94,-818.36,-543.66,-1097,-1636.2,-2088.9,-2036.2,-1523.3,-859.01,-430.61,-419,-929.59,-1405.9,-1440.8,-1872.7,-1713.5,-1309.6,-575.17,-101.72,-257.6,-556.03,-790.42,-933.89,-956.47,-831.73,-616.1,-506.98,-703.59,-1050.1,-1316.9,-1098,-690.6,-334.52,-454.23,-980.4,-1033,-608.49,-329.79,-99.933,-12.462,-497.17,-916.67,-762.32,-433.8,-248.11,-399.52,-547.09,-1037.5,-840.75,146.07,78.487,-427.4,-926.22,-1196.6,-994.12,-878.52,-449.57,-146.64,-64.099,-613.43,-1276.5,-1496.8,-1189.9,-914.78,-916.39,-1146.3,-1361.5,-1337,-1189.3,-1174.4,-1201.7,-1210.1,-809.01,-707.28,-870.51,-720.57,-170.38,-868.61,-2044.1,-1581.2,-856.84,-741.25,-1211.8,-1497.9,-1823.3,-1684.1,-905.73,-298.82,-521.38,-1099.1,-1534.2,-2463.8,-2778.9,-2129.1,-1190.3,-925.51,-1442.6,-1741.4,-1898.1,-1874.5,-1909.6,-2485.8,-2213,-1317.7,-1254.3,-1626.8,-1929.1,-1855,-1742.4,-2115.1,-2385.4,-2493.4,-2432.8,-2212,-2154.6,-2067.7,-2267,-2984.8,-3312.4,-2526.8,-1799.4,-1826.9,-1541.7,-1380.9,-1629.5,-1991.3,-2149.9,-2136.5,-2219.5,-1908.5,-1496.2,-1675.4,-2228.5,-1979.2,-1735.1,-1975.3,-1839.9,-1473.1,-1031.1,-590.48,-964.11,-1590.6,-1991.4,-2063.1,-2020.5,-1688.9,-1148,-980.61,-1027.7,-1052.7,-1059.7,-1647.3,-2025.5,-2048.3,-1498.7,-764.26,-463.64,-775.6,-1422.3,-1888.9,-2115.6,-1649.3,-1191.1,-1475.3,-1530.1,-1499.4,-1443.1,-1282.9,-2181.7,-3118.6,-2633.2,-1250.7,-338.33,-549.96,-1233.5,-1807.9,-2305.6,-2664.4,-1800.8,-695.37,-664.58,-1090.8,-1368.6,-1631.3,-2116.1,-2689.2,-2756.1,-2029.9,-1313,-845.16,-665.41,-1548,-2678,-2713,-1885,-726.05,-466.12,-1137.7,-1229.6,-907.21,-1284.2,-1923.3,-2241,-2092.1,-1599.2,-838.21,-439.85,-910.64,-1495.4,-2218.7,-2009.8,-515.19,783.8,1132.8,777.17,551.78,454.51,-354.63,-1453.3,-2121.3,-2200.3,-1150.7,259.87,1401.8,1506.7,199.52,-563.29,674.13,2895.2,4229.6,4362.6,4001.4,2876.7,1079.6,-207.87,-1525.7,-3239,-3651.5,-2751.2,-1111.6,-964.74,-2190.2,-3197.9,-2846.8,-1138.2,894.71,1853.4,1315.4,641.82,488.75,234.08,-901.96,-1868.7,-1622.1,-398.87,921.47,1346.8,509.27,-1354.9,-2512.1,-2116.9,-684.04,1283.8,2227.8,1654.7,527.45,-298.28,-897.86,-1580.6,-1975.9,-1438,-122.47,814.6,201.09,-1282.4,-3515.3,-5705.2,-5681.2,-4637.4,-4872.9,-6162.3,-6168.9,-3015.6,1854.9,5533.9,7028.2,7026.5,4327.9,-2591.7,-7718.4,-7118.1,-3409.5,949.82,4813.3,4760.5,325.57,-5881.7,-10741,-15283,-18450,-17105,-10592,101.53,5521.6,5889.3,1958.8,-1960.2,-2570,-2738.9,-2247.7,1179,2075.1,-88.393,131.71,1111.9,779.55,-763.46,-1330.3,-633.45,-1745.7,-2977.2,-1593,-2498.2,-5059.1,-3154.2,-1261.7,-1724.5,-5218.6,-9302.7,-9068.1,-6352.1,-2017,5338.4,7676.1,6420.2,2932.4,-1975.4,-7880.1,-13118,-17743,-15216,-3546.8,6163.4,11159,12376,7634.9,-4323.5,-14144,-17863,-17539,-11766,-2593.2,3742.9,6988.8,7330.3,8920.9,14012,13206,7082.7,-1719.7,-15546,-28585,-29954,-13182,1798.6,6298.8,3995.8,15.464,-2357.5,-4261,-2843.7,270.38,2266.5,2343.7,-726.75,-1746.1,-2440.5,-2071.8,396.97,2744.6,5657.9,10302,14511,13341,7707.8,-1212.5,-9408.5,-9892.4,-4315.8,640.54,3039.5,2285.9,-26.926,110.88,3975.9,10404,13904,12658,8929,84.248,-8011.9,-6720.4,-3280.7,-3600.9,-3312.1,-3039.4,-5244.1,-6617.6,-3853.5,1167.8,5510.8,7177.5,5156.3,-1051.8,-6912.8,-6809.5,-3603.7,-829.41,3913.1,8109.5,6027.1,-974.17,-5657.6,-6283.9,-7151.5,-6716.9,-5154.6,-1797.1,1316.8,1921.6,1050.8,151.31,-1113.2,-2758.7,-4106.7,-6784.3,-10546,-11169,-6887.2,-600.89,2762.3,3096.2,2165.6,1208,858.44,731.8,719.6,1406.7,973.78,-379.32,274.14,1018.2,-994.98,-4163.1,-7787.7,-7467.8,-2937,1285.2,1318.7,-600.25,-1228.9,-2605.5,-2523.7,-658.42,152.27,103.01,-554.79,-3012.4,-4940.2,-3571.3,-2028.4,-1620,-1128,-1711.6,-3665.5,-2677.7,-854.05,-3611.8,-5640.6,-5569.2,-4775.7,-4713.4,-3220.4,-4842.4,-9535.6,-8285.1,-762.65,5874.4,7729.6,3308.6,-4972.5,-9570.8,-8039.5,-3647.7,847.01,1999.8,-545.45,-3380.9,-3683.1,633.28,4766.6,5919,5421.2,3777.6,443.26,-3950.8,-4353.3,-2688.5,-2382.3,-2127,-1723.2,-795.37,-208.27,-324.45,-36.222,-607.83,-3557.2,-5245.7,-5359.1,-4640.6,-3112.1,-1088.6,619.12,3395.8,3820.4,1563.8,-304.86,-778.09,-1122.2,-1541.1,-1864.9,-2447,-1980.9,-3160.6,-5381.6,-5923.4,-4696.6,-1447,1299.2,408.1,-1670.2,-1233.1,2266.2,6180.1,5439.7,-933.6,-7528.7,-8114,-4033,-941.73,423.56,1092.7,1326.7,876.27,874.15,2782.5,3321,1996.6,-2619,-10101,-9849.6,-3473,1290.9,-472.73,-3730.2,-4250.7,-2889.6,-1963.5,-884.3,556.14,2634.8,4447.8,3299.6,94.391,-601.06,-1268.7,-2844.3,-2776.4,-1534.1,-736.48,-655.94,-1210.3,-1461.6,-472.86,1192.2,1842.5,2040.3,687.1,-3276.3,-5275.9,-3027.3,-2093.5,-4155.4,-5347.6,-6526.3,-5280.2,-1734.9,954.73,2267.1,2382,1196.8,26.446,-499.84,-2531.3,-7024.7,-11931,-9385.6,-2509.4,838.48,1541.6,2130.1,2323.7,1049.3,-671.34,-1810,-1443.9,233.52,2542.5,3523.9,1233.3,-4819.8,-6214.9,-1195.2,885.48,-78.534,-1123.9,-1587.7,-3179.8,-4870.6,-5383.5,-4231.1,-258.16,1665.8,1423.5,675.21,1486.1,3140.1,4421.3,3311.7,2599.8,3898.7,4146.7,2136.8,-1271.1,-4339.1,-4256.9,-1579.5,-319.47,-360.8,631.25,1230,-1436.4,-5112.1,-4499.2,-2609.5,-1803.3,-2014,-2807.3,-3306.6,-3154.1,-2578.4,-995.51,-526.98,-110.9,289.35,-875.37,-3088.3,-2313.6,-261.79,1123,1677.7,1073.1,-59.51,-1507.1,-3389.6,-5712.1,-5769.8,-2563.7,19.582,1320.6,990.37,-415.09,-1987.3,-3403.6,-4689.7,-4304.8,-3516.7,-2663.1,-2161.6,-2592.3,-2152,-758.05,922.01,3645,4466.3,2697.7,74.11,-1921.7,-3535.2,-7529,-9789.7,-7087.4,-3432.9,602.46,4121.1,5413.1,3963.5,2203,985.26,-1620.2,-4499.1,-5689.9,-4948.9,-3054.4,-2159.5,-2719.2,-5243.4,-8473.3,-9354.1,-7548.5,-9024.6,-9959.9,-7583.8,-2942.7,355.17,-221.1,-908.89,-1037.1,-1050,85.828,2419.4,2735,1796.8,1065.4,454.78,2040.2,4451.3,3754.4,1730.1,26.11,-2022.8,-2598.1,-2550.3,-1906.6,-281.02,2186.6,1916.3,-358.47,-1711.3,-1449.3,-305.79,1646.3,2849.2,845.58,-13.742,493.23,137.1,-106.55,485.87,2034.8,2223.8,433.43,-2760.7,-5866.8,-7303.9,-6598,-3610.7,-119.17,442.36,-2652.9,-4432.7,-1404.9,243.1,-812.63,-2913.7,-2876.5,-927.93,806.7,406.03,-754.31,-1311.3,-4.2213,60.673,-1196.9,-2097.2,-2722.7,-2877.7,-3394.1,-3634.1,-4794,-6461.3,-6000.8,-4409.4,-3382,-1740.7,-802.43,-2292.5,-3234.7,-904.98,486.37,14.11,-1164,-360.05,1861,3847.9,4341.6,3189,1188.1,-1216.6,-2022.6,-2265,-3770.7,-5024.6,-4205,-578.68,2218.4,2851.5,2314.8,1708.4,883.06,-83.596,306.72,1988.8,1653.1,723.66,-19.702,-823.74,-1985.5,-3797.3,-4881.1,-5781.7,-5802.9,-2219,3270.4,5265.1,3301.7,-4275.1,-12744,-13395,-8811.8,-4804.8,-1806.6,998.74,311.44,-1719.7,-2282.2,127.42,1744.3,809.51,-889.19,-3002,-3131.1,-65.861,2683.8,3368.2,3164.4,3494.6,3458.8,3102.6,2330.7,-79.519,-3152.3,-5058.1,-4292.8,-1974.4,316.94,1336.9,-1200.2,-4680.5,-4599.2,-935.64,618.88,862.95,1047.8,1547.7,2089.6,1080.4,-1144.2,-3054.7,-4572.9,-4653.8,-3908.5,-2320.7,-1366.3,-2366.1,-3019.6,-2273.4,-2934.3,-6520.1,-8239.4,-9056.4,-10255,-8532.2,-4184.1,1914,8862.2,13573,11916,4187.6,-1148.8,-4315.3,-6163.9,-4056.7,-2943.5,-5564.5,-7674.2,-7697.5,-4871,-1455.9,824.51,1218.4,1159,822.47,420.18,907.16,2305.1,3790.4,3909.4,3478.7,2328.9,-651.41,-2860.3,-4075.3,-5375.3,-4275.2,-1970.8,-180.51,1453.7,2388.3,999.29,-2035.7,-3870.8,-3643.2,-3030.1,-3068.6,-3916.1,-3795.1,-2316.8,-1744.1,-2107,-1867.2,-2157.8,-2703,-873.54,1437.4,1405.7,-297.44,2.6591,88.805,-981.43,-2435.9,-3292.3,-2462.9,-798.92,831.27,1381.3,795.57,1302.6,1907.4,907.05,66.977,177.95,-1.4485,-2735.3,-5574.6,-6963.2,-6721.6,-5298.5,-3401.5,-2844.7,-3358.4,-3583.8,-1809.4,965.56,1804.6,1815.7,503.57,-1098.7,-2326.5,-4461.4,-5190.2,-3261.2,-1101.8,-1332.7,-1693,22.635,424.25,-918.67,-1793.5,-1561.2,-2868.6,-3642.9,-2989,-4039.6,-5366.6,-3686.8,1634.6,3799,1164,-569.07,-269.09,920.94,1539.6,893.09,902.95,2927.6,3766.5,2234.8,-301.98,-4553.3,-7437.5,-7472.5,-7739.7,-8917,-9452.3,-6944.7,-4931.7,-2929.6,-78.742,2691.3,4907.7,6227.5,5847.4,3095.9,-1332.9,-3805.8,-1648.6,1708.7,2460.9,1711,259.28,-429.19,-435.2,-1042.1,-1681.1,-2297.3,-2925.8,-3629.3,-972.26,-864.7,-1522.6,-3252.4,-4394.1,-3501.1,-2137.6,-1855.2,-1831.5,-1777.4,-1900.5,-1668.2,-1279,-1301.8,-1375.4,-1556.6,-1605.9,-1470.9,-1755.8,-1981.6,-2075.5,-2283.8,-1461.8,-1042.7,-1565,-1760.9,-1557.5,-1678.6,-1291.9,-936.13,-1412.8,-1632.6,-1921.7,-1808.9,-983.56,-914.39,-1704.5,-1307.3,-245.13,-377.46,-862.6,-914.02,-840.45,-769.03,-1354.6,-1607.7,-1191.1,-1093.8,-1155.4,-1084.9,-1361.5,-1946.1,-1820.3,-601.16,-152.51,-878.64,-1233.8,-1289,-1514.7,-1418.8,-983.99,-802.41,-1170.7,-1348.6,-910.79,-711.63,-712.55,-1076.3,-1030.8,-975.73,-629.14,-323.42,-488.37,-763.09,-1079.3,-1266.2,-1233.8,-1041.8,-680.06,-829.83,-1216.9,-967.02,-1058.7,-1420.4,-1494,-1494.6,-1814.8,-1971.9,-1855.5,-1570.3,-1017.4,-758.51,-1337,-1882.9,-2423.4,-2271.6,-1187.3,-717.82,-1308.9,-1549.7,-1468.8,-1908.5,-2040.8,-1389.7,-1099.9,-1322.6,-1679.5,-1989.4,-2014.6,-1594.2,-888.3,-61.922,563.7,109.24,-1220.8,-2275.6,-1821.5,-1124.6,-1507,-1777.1,-1643.9,-1290.9,-1066.8,-1344.6,-1635.4,-1610.2,-1293,-612.59,-623.46,-1562.1,-1677.2,-1486.1,-904.96,-625.83,-620.75,-430.83,202.5,271.14,-139.59,-547.28,-723.03,-760.43,-787.44,-1132,-2397.5,-3942.6,-3391.9,-1597.8,-1239.2,-1750.7,-2320.9,-2318,-1887.8,-1531.1,-1386.9,-1409.5,-1704.3,-1626.6,-1731.5,-1508.8,-756.43,-656.26,-917.42,-1088.1,-1382.7,-1346.2,-1318.5,-1783.4,-3029.5,-3305.2,-2551,-1942.5,-1913.7,-2155.3,-2463.1,-2669.4,-2705.3,-2662,-2731.7,-2692.2,-1885.2,-442.43,132.38,265.87,537.27,719.35,488.09,482.93,516.31,590.68,389.98,-397.24,-886.35,-901.97,-591.72,-387.28,-102.25,502.18,-107,-614.91,-313.36,-508.61,-777.1,-865.62,-703.18,-431.33,-218.73,-283.08,-505.77,-369.6,-98.92,-217.88,-729.26,-1361.2,-1634,-1723.1,-1639.6,-952.65,-218.22,-246.86,-1134.3,-1749.1,-1721.5,-1629,-1143,-819.53,-1452.3,-2168.3,-2160.9,-1556,-1070.5,-810.49,-509.59,-1004.1,-1994.7,-2518.3,-2665.7,-2652,-2186,-1666.6,-1385.1,-1540.3,-1932.7,-2391.5,-2186.7,-1146.4,-720.41,-1360.2,-1332.8,-787.59,-912.29,-1451.9,-2052,-1606.1,-924.76,-1002.6,-1503,-2038.5,-1994.4,-1739.9,-1421.5,-1000.3,-1287.3,-1994.8,-2267.8,-2000.3,-1490.2,-1320,-1305.4,-1605.4,-1764.5,-1805.9,-1432.4,-1118.3,-1327.6,-1048.9,-288.61,-706.82,-2022.8,-2358.4,-2114,-1433.8,-1121.8,-1214.1,-1377.6,-1561.1,-1900.8,-1880,-1668.7,-1674.1,-1661.1,-1499.5,-1833.4,-2372.1,-2227.2,-1833.7,-2061.6,-2259.1,-2434.7,-2977.1,-2887.9,-1983.2,-873.17,-597.41,-1271.4,-2058.2,-1568.5,-203.88,143.63,-923.13,-2237.1,-2613.2,-2323.2,-1826.9,-1661.1,-1725.9,-1889.4,-2071.5,-1792.9,-1729.4,-1828.6,-1681.4,-1900.9,-2192.6,-1959.2,-1494.1,-1054.1,-1150.6,-1721.8,-1434.1,-1001.7,-566.44,-452.48,-805.78,-1209.5,-1472.5,-1347.5,-1308.3,-1489.7,-1474.9,-1364.8,-1006,-383.35,-254.15,-792.67,-856.87,-838.94,-1020.3,-737.34,-463.45,-374.5,-782.03,-1342.2,-674.98,275.65,165.2,-565.48,-639.83,-507.42,-1080.4,-780.78,-276.36,90.966,41.484,-408.04,-617.54,-472.75,-282.99,-513.51,-933.82,-1198,-1308.4,-1133.4,-1425.9,-2226.6,-1624.1,-385.54,-341.53,-630.04,-180.16,-12.967,-532.21,-1152.1,-1942.6,-1684.7,-890,-606.29,-844.91,-1115,-1372,-1420,-1143.5,-963.77,-1164,-762.5,-555.12,-1108,-1511.7,-1571,-1266.1,-1077.5,-847.98,-550.91,-787.06,-1082.4,-1021.5,-976.66,-1164.5,-1027.8,-472.73,59.273,-81.729,-1024.3,-1888.1,-2363.9,-2213.1,-1386.2,-774.09,-266.65,-471.78,-1698.7,-2169.7,-1141.2,7.4566,231.16,4.2365,-565.65,-682.84,-488.11,-716.96,-1433.3,-1851.8,-1704.4,-1296,-947.96,-765.35,-1145.8,-1857.5,-1889.9,-1326.4,-899.61,-951.6,-1661,-2328.3,-2420.1,-1800,-1585.9,-2100.6,-2568.1,-2458.3,-2227.3,-1715.8,-1359,-1296.2,-1568.6,-2247.9,-3103,-2758.9,-1666.5,-1115.9,-968.15,-1276.4,-1772.4,-1051.2,-1019.8,-1572.1,-1996.2,-2039.9,-1811.5,-1553.2,-1624.5,-1955.1,-2304.2,-2200.3,-1791.3,-1384.9,-957.93,-735.14,-755.93,-846.21,-1300.8,-1909.4,-2476.3,-2494.8,-2197.7,-1750.5,-1483.2,-1546.3,-2113,-2290.6,-1650.4,-1017.3,-1597.8,-2159.5,-1456,-1243.6,-1656.8,-1877.5,-1693.1,-1573.7,-1549.1,-1510.9,-1662,-2035.8,-2365.3,-2400.8,-2383.7,-2407.4,-2378.3,-1952.4,-1405,-1281.9,-1384.4,-1607.5,-1828.6,-1904.5,-1445.9,-1064.6,-1279.5,-1642.2,-1796,-1835.2,-2073.5,-2289.4,-2160.4,-1691.2,-1076.3,-554.71,-274,-539.1,-1530.5,-2279.8,-2171.2,-1734.1,-1404.1,-1042,-521.03,-472.88,-672.01,-864.63,-1070.1,-1097.4,-1001.9,-1231.7,-1549.8,-1598.8,-1499.2,-1509.7,-1579.9,-1224.7,-803.75,-659.54,-824.49,-752.78,7.0567,434.26,525.62,783.84,529.98,-202.98,-980.82,-727.52,-49.579,-97.705,-474.09,-200.78,-319.15,-1940.3,-2855.5,-2093,-900.44,-138.19,17.807,784.73,963,-32.292,-1171.1,-1642.7,-1563.4,-1813,-1713.7,-2194.9,-3574.2,-5115.5,-6347.4,-6241.4,-4392.1,-1993.8,-389.92,132.83,-717.78,-2032.5,-3246.5,-4102.3,-4977.9,-5949.9,-5469.9,-3669.1,-2376.2,-2013,-737.83,-252.39,-2343.7,-3121.2,-2029.7,-2010.6,-3872.7,-4143,-3746.1,-4014.1,-2416.4,-242.74,1395.6,2425.3,5398.9,8330.5,10117,9701.2,7519.3,5623,5386.2,5477.5,5149.2,4368.9,3215.6,2739,2788.7,1589.6,209.31,-515.71,-1650.3,-2639.3,-2577.4,-1708.3,60.217,2386.4,4161.7,5082.2,4530.8,2657.1,719.5,-176.91,-248.47,-279.71,1010.9,4041.8,6913.4,7242.8,3765.4,-951.11,-4985.1,-7569.7,-7495.1,-6985.6,-7131.3,-8839.9,-10965,-12559,-12831,-10934,-9034.7,-8721.4,-8195.1,-6852.9,-3326.7,1944.1,4844,5941.1,7744.3,7537.9,4444.5,1663.7,841.37,1588.4,1017,-1134.7,-3147.5,-5286.7,-6392.7,-7557.9,-9053.5,-9662.9,-8738.5,-8525.5,-10734,-11725,-11292,-9335.3,-4330.9,-62.349,3894,6988.3,8966,10169,10690,9814.1,6957.2,3332.9,695.07,-1094.6,-2869.5,-4025.9,-5293.2,-7315.6,-9630.9,-9596.9,-6688.8,-4758.5,-5497.7,-7163,-6345.9,-4165,-1924.1,-447.36,-1021.4,-2034.4,-2315.6,-280.59,1037.4,256.06,-1652.3,-4081.8,-6931.5,-9811.2,-12596,-12162,-9401.2,-8701.7,-9536.9,-8097.3,-6337.3,-4958.2,-3261.6,-3546.6,-4482.5,-4269.9,-5787.6,-8184.4,-8937.8,-6168.4,-3032.6,-518.69,1046.7,1781.8,2778.8,3189.6,1104.6,-1755.3,-4582.7,-5161.7,-4201.4,-2806.9,-255.19,3735.2,7219.2,8422.6,7060.3,3557,-397.73,-2776.2,-3250.5,-5428.1,-5695.7,-1306.7,4067,7950.1,9259.2,6795.7,4832,5181.4,5756.2,4600.3,3714.6,3565.6,4987.4,5944.1,5225.8,3421.6,1032,-1949.9,-3114.6,-2219,-1135.6,-557.57,-1440.9,-1108.6,1684.1,2841.8,3817.7,5832.8,7809.2,8126.2,7037.9,5733.5,4274.2,2975.5,861.9,-557.52,-1267.8,-1204.9,204.01,1641.7,4114.2,5759.2,3620.3,1572.4,1583.8,1814.2,2625.5,4501.9,4748.1,3699.9,2224.1,1722.8,653.77,-1496.8,-2215.8,-636.32,293.74,-1352.9,-3774,-2864.3,-1088.4,-1534.9,-2559.6,-1896.1,-1720.2,-1659.2,-1492.2,-1673.6,-1604.4,-1355.6,-1285.4,-2506.4,-5270.1,-7473.4,-7138.8,-5259.9,-5476.1,-6009.2,-4312.3,-4373.7,-5176.1,-5244.5,-6321.5,-6631,-4739.9,-2240.6,-4735.4,-6860,-4834.5,-2320.6,-912.82,-2029.5,-2923.8,-3549,-4593.8,-5054.1,-4393.2,-3410.7,-2170.9,-1561.4,-1486.5,-1858.9,-2662.9,-2917.9,-2979.9,-4384.9,-5567.4,-5653.3,-5558.7,-5897.7,-5585.6,-4764,-3799.8,-3559.5,-3187.8,-2323.6,-2566.5,-1321.1,-685.4,-1605.8,-1455.3,-1343,-2467.7,-2644.5,-2386.7,-2736.2,-3670.4,-3900.6,-3748.4,-2863.8,-2054.3,-3197.4,-6279.2,-7556.8,-6079.1,-4931.3,-5839.6,-5236.2,-1431,440.56,-1563.5,-2418.4,-1967.2,638.42,1270.6,-1026.4,-2911,-3264.2,-2756,-1886.3,-1271.1,-2033,-2417.3,-1121.5,1036.1,1339.2,615.16,-268.85,-695.11,-748.85,-1637.7,-3279.8,-4689.9,-5066.3,-4760.3,-2679.3,-766.43,-549.63,-1110.6,-1655.3,-2418.3,-2647.6,-2615.2,-2898.6,-3453.2,-4194.2,-3935.1,-1689.5,1244.4,3403.8,3775.5,2600.9,1476.6,418.63,-2020.3,-3733.2,-3682.6,-3782.2,-2889.2,320.05,3727.7,4543.4,3234,1460.5,281.62,-1030.2,-1845.9,-1533.1,1076.8,5038.4,6353.4,4967,3335.8,3145.6,2177.4,1030,832.15,557.02,244.69,863.37,1703.5,1506.1,765.12,865.3,1924.9,871.83,-1097.8,-394.49,1985,3612.5,3207.3,2065.1,156.62,-1406.7,-1837.5,-1334.3,-830.98,1247.3,1902.4,1482.3,1322.1,2070.3,3007.3,2454.3,1180.8,1601.4,2152.8,1781.5,1705.1,1737.7,1870.5,1406.8,437.51,-754.81,-1645.8,-1447.1,-917.31,-130.23,580.13,705.14,83.397,-278.49,499.19,-41.708,-1403.7,-1614.2,-1811.5,-2944.1,-3671.1,-3702.5,-3784.5,-4177.7,-3621.9,-2432,-948.07,243.45,504.39,-38.046,-1043.6,-1858.1,-2128.9,-2721.6,-2728,-1327.3,-680.49,-685.36,-689.46,-1204.3,-1857.9,-2683.9,-3530.7,-3814.3,-3337.6,-2434.1,-2509.8,-2784.9,-2077.3,-2115.3,-2194.1,-1448,-744.93,-728.33,-1136.7,-1106.1,-971.37,-2277,-4226.1,-4845.4,-4630.8,-3871.9,-3758.7,-3316.3,-2089.2,-927.88,-1022.1,-1641.4,-2244.2,-2614,-2155,-1752.6,-1536.4,-1602.1,-1765.5,-2524.1,-3457.2,-4515.8,-4266.1,-4067.5,-4113.3,-4000.4,-4432.9,-4074.3,-2778.8,-1715.5,-1230.1,-1728.4,-2621.9,-3046.9,-3073,-3495.3,-4249.9,-4534.2,-4452.3,-3960.2,-3398.5,-2215.1,-1699.7,-2277.5,-3284.2,-3762.9,-5092.8,-6081.1,-5297.8,-4472.1,-4177.9,-4878,-5941.6,-6159.4,-6050.6,-5704.6,-5679.4,-4082.9,-1876.9,-1428.1,-2176.8,-2386.8,-2569.7,-2518.6,-2436.6,-2910.3,-2748.3,-1547.7,-1243.5,-1586.6,-2004.1,-2814.2,-3653.3,-3531.7,-2957.1,-2789.7,-2841.9,-3631.4,-3945.1,-2682.4,-1800.1,-1031.1,-541.03,-318.99,911.31,1901.1,469.8,-1012,-1955.6,-1599,-233.71,-76.229,-685.84,-542.6,150.18,6.2889,277.35,1318.1,1842.2,1462.5,921.8,153.75,-505.45,-652.24,-648.04,-386.08,757.86,1524.9,1066.4,1346.2,2198.9,2008.9,1542.8,1704.9,2411.3,2050.8,1605.6,1893.5,1883.6,1507,1467.5,1673.6,1299.6,902.14,1097.9,1681.4,1209.4,960.23,326.49,-804.23,-436,338.31,155.31,432.82,561.44,393.16,1155.5,1727.2,1092.5,546.6,771.08,1223,1843.8,2287.2,1944.5,1493.9,1173.1,1036.9,1115.9,1310.7,1031.8,488.97,733.64,2108.1,2358.2,1323.2,279.32,-1176.1,-2011.3,-1574.7,-796.98,-499.55,-128.49,1222.9,1954,1085.7,-428.99,-1393.7,-858.79,177.11,1663.3,3323,2084.7,225,475.97,1560.9,1201.7,-362.26,-704.55,231.03,1120.7,984.55,476.34,743.27,1049.4,667.37,318.21,247.02,-597.32,-1578.7,-2308.8,-2269.9,-1904.3,-1363.2,-971.64,-1800.4,-2224.8,-1706,-1228.5,-983.52,-877.22,-887.74,-1057,-1226,-1277.7,-1157.2,-1643.6,-2365.6,-2786.8,-3248.1,-3309.1,-3593,-4210.9,-4409.4,-4732.5,-4659.2,-3704.3,-3091.9,-2976,-3414.9,-3508.9,-3143.8,-2611.6,-2146.6,-2375.8,-2690.8,-3821.2,-5359.4,-5917.6,-5239.5,-5001.8,-5541,-6126.6,-6737.4,-6568.9,-5973.2,-5417.9,-5310.4,-5125.2,-5150.9,-5350.8,-5732.2,-6854.1,-7093.3,-6084.5,-5270.8,-5579.2,-6570.4,-6908.6,-7180.7,-6075.8,-4029.2,-2371,-2710.5,-3898.2,-4313.2,-3614.4,-3359.7,-4631.3,-4488.1,-2869.4,-2043.9,-2793.2,-4649.9,-7029.8,-7839.5,-6177.6,-4487.1,-4105.3,-3493.4,-3533.3,-5702.1,-5689.3,-5183.2,-4948.2,-4776.4,-4205.2,-1679.6,-144.51,-992.18,-2014.2,-2378.4,-2696.5,-3177.6,-3525.1,-3910.6,-4630.3,-5552,-5802.4,-4777.3,-2829.5,-1153.2,-535.25,-549.46,-564.81,-586.92,-865.94,-1075.7,-801.98,173.8,791.84,-29.269,-854.89,-435.32,63.676,-164.75,-733.76,-1363,-1845.2,-1515.3,-786.85,-452.29,-166.73,-39.62,-458.76,-3.7532,725.99,1606.9,2141.6,2585.2,3066.8,3649.5,3295.7,394.83,-1875.7,-441.89,1975.7,3352.8,3815.2,3605,2713.1,2622.3,3358,3358.4,2898.7,2847,3417.1,3886.7,4012.2,4404.9,4313.7,3649.4,4533.5,6060,-782.35,-860.71,-795.67,-986.17,-1701.9,-1888.4,-1423.4,-1323.2,-1506.6,-1136.7,-1389.1,-2506.1,-2510.4,-1427,-408.38,-78.484,-641.74,-1181.3,-1649.8,-1861.5,-1861.1,-2088.9,-2119.3,-2085.7,-2132.4,-2163.3,-1848.7,-1390.6,-843.41,-273.12,-158.54,-366.61,-693.94,-1013.5,-1203.6,-1161.3,-1134.2,-1134.1,-1091.8,-1487.3,-1697.8,-1490.6,-1222.8,-1146.3,-1385.8,-1012.9,-444.29,-902.33,-1609.6,-1035.7,-176.24,-682.33,-1679.4,-2344.8,-2150.9,-1634.2,-1373.3,-1334.6,-1211.6,-1240,-1282.5,-873.02,-740.55,-1061.5,-1016.7,-921.15,-853.26,-908.83,-996.26,-1193.1,-1457.5,-1749.9,-1626,-1348.6,-1226.9,-1200,-1298.6,-1309.2,-1467.1,-1583.1,-924.69,-316.06,-378.52,-588.43,-752.84,-960.8,-1363.4,-1478,-1659.1,-2021.5,-2003.1,-1504.4,-1422,-1553,-1058.9,-980.68,-1306.5,-1087.1,-701,-704.45,-875.92,-1064.5,-1056.1,-1103.5,-1150.8,-1096.9,-1047.7,-1179.3,-1088.9,-1063.2,-1100.6,-1100.5,-1163,-1184.5,-1014.6,-1005.1,-1098,-1166.3,-983.51,-960.85,-801.09,-577.86,-1029.5,-1201.1,-1226.5,-969.61,-446.9,-261.27,-546.18,-515.55,-489.33,-878.43,-953.92,-809.01,-884.14,-1041.4,-1011,-805.2,-872.49,-1653.7,-1964.2,-1873.3,-1746.7,-1710.5,-1657.5,-1605.1,-1638.5,-1549.5,-1574,-1917,-2210.6,-2059.5,-1624.1,-1598.3,-1979.6,-2152.2,-1982.3,-1743.7,-1768.1,-1748.7,-1583.3,-1676.1,-1953.7,-2247.9,-2761.1,-2794.6,-2408.2,-1665.6,-787.26,-1527.1,-2357.7,-1444.6,-361.87,-2164.6,-3622.4,-2339.3,-1603.5,-2134.5,-1958.3,-1583,-1588.2,-1633.9,-1752.6,-1941.3,-1707.2,-1231.6,-1450.5,-1672.8,-1593.4,-1431.8,-1682.9,-1820.2,-1548.8,-1687.6,-1855.7,-1601.6,-1176.6,-1159.1,-1480.4,-1419,-1317.7,-1249.9,-1212.6,-1423.4,-1337.4,-1081.3,-1067.8,-839.78,-724.84,-900.44,-1120.4,-810.51,-710.76,-875.36,-1093.8,-1128.9,-930.11,-543.73,-517.5,-788.58,-702.55,-250.28,-743.97,-1171.4,-1025.9,-927.77,-1036.3,-799.32,-808.82,-1203.5,-1454.1,-1654,-1577.7,-1195.2,-957.23,-1279,-1709.7,-1265,-1131.7,-1263.4,-948.38,-672,-631.51,-603.23,-614.12,-669.08,-793.06,-972.27,-1136.4,-1185.2,-1048.7,-1018.1,-818.27,-715.74,-458.14,-328.17,-560.61,-775.17,-648.9,-724.76,-1079.6,-1137.5,-990.65,-636.61,-660.56,-944.67,-1279.5,-1172.9,-791.02,-730.84,-346.49,-165.21,-488.51,-702.44,-472.4,-647.13,-973.58,-1004.5,-985.62,-986.62,-1098.9,-1336.6,-1631,-1860.9,-1647.6,-1371.7,-1206.4,-1202.1,-1071.4,-923.21,-928.25,-893.07,-963.55,-1199.1,-1516.1,-1897.6,-2009.2,-1803,-1548.2,-2209.2,-2969.1,-2332.6,-1004.9,-596.13,-1026.5,-1456.4,-1380.4,-1083.3,-1064.1,-1012.2,-1079.6,-1395.5,-1714.9,-1399.7,-1178.4,-1948.7,-2626.9,-2379.5,-1856.1,-1141.1,-642.33,-811.44,-1008.1,-1013.7,-917.58,-1142.8,-1598.5,-1907.5,-1927.5,-1819.5,-1986.8,-2226.6,-1881.2,-1744.3,-2070.7,-2025.2,-1903.5,-1807.7,-1514.1,-1238.8,-1402.2,-1665.3,-1809.4,-1779.2,-1672.3,-1801,-2025.5,-2044.3,-1863.7,-1688.7,-1767.3,-1823.2,-1622.8,-1404.1,-1280.4,-1141.8,-1071.5,-1049.5,-1137.6,-1357.8,-1654.3,-1679.9,-1719.9,-2041.8,-2139.3,-2273.1,-2231.6,-2015.1,-1693.2,-1328.2,-1111.1,-1143.3,-966.28,-853.31,-872,-1003,-1104.6,-1239.8,-1392.5,-1467.6,-1400.9,-1376.8,-1664,-1731.1,-1437.7,-1426.1,-1879.8,-1800.8,-1052.3,-573.64,-635.07,-879.45,-1148.8,-918.45,-772.32,-867.89,-970.65,-903.89,-925.23,-975.39,-1090.6,-1097.1,-923.82,-860.22,-796.66,-451.59,-513.97,-615.49,-786.47,-808.98,-580.13,-728.96,-1051.6,-1209.4,-1039,-1078.1,-1268,-1255.4,-1482.5,-1282.4,-936.68,-898.5,-944.84,-969.77,-967.14,-1082.3,-1207.4,-1166.1,-1184.3,-1482.1,-1446.2,-1107.1,-980.47,-1176.9,-1467.5,-1656.9,-1583.8,-1451.4,-1269.8,-1031.6,-1115,-1272,-1135.2,-1219.2,-1696.9,-2149.1,-1916,-1792.4,-2060.1,-1732.5,-1467.7,-982.21,-1158.7,-2021.1,-2268.3,-1810.2,-1336,-804.05,-908.04,-1506.1,-1569.5,-1249.3,-1169.7,-1214.8,-1112.9,-841.98,-665.1,-737.81,-1048.8,-1116.4,-1055.1,-890.55,-861.95,-919.01,-1146.2,-1205.6,-1133.4,-1056.7,-939.2,-788.22,-797.34,-784.31,-484,-410.73,-643.06,-980.88,-1070.5,-909.04,-959.68,-1172.2,-1233.4,-1415,-1402.3,-1155.5,-932.49,-903.3,-788.16,-641.73,-606.68,-615.71,-729.95,-950.58,-1363.2,-1553.1,-1461.2,-1449.6,-1590.2,-1784.1,-1799.4,-1595,-1439.5,-1325.2,-1274.9,-1110.7,-790.56,-624.24,-661.33,-747,-916.73,-1185.1,-1467.5,-1529.2,-1351.7,-1110.8,-1393.3,-1718.2,-1703.5,-1618,-1596.4,-1517,-1636.6,-1297.1,-877.21,-697.23,-571.41,-917.35,-1476.4,-1540.8,-1337.2,-1233.6,-1156.2,-943.38,-689.12,-612.84,-1029.7,-1320.8,-1544.5,-1915.8,-2322.9,-2352.4,-1464.7,-708.42,-981.74,-1657,-1866.1,-1682.5,-1715.3,-1645.9,-1471.9,-1444.2,-1229.9,-1093.3,-919.01,-490.27,87.156,309.6,58.325,-208.49,-441.91,-1223.5,-2565.2,-3645.9,-4279.8,-4061.4,-3196,-2590.2,-2130.1,-1729.4,-1719.8,-1709.3,-1533.3,-1313.5,-1100.3,-1016.2,-1244.3,-1961,-2530.4,-2858.3,-3072.3,-3191.3,-3371,-3161.6,-2816.3,-2369.4,-1855.5,-1497.5,-1111.5,-836.26,-620.45,-303.12,-392.5,-1079,-1803.5,-2285.5,-2456.4,-2852.1,-3407.5,-3698.4,-3688.7,-3711.4,-3936.7,-3735.4,-2841.2,-1889.2,-504.35,592.89,948.81,491.62,-87.261,-510.36,-999.86,-1551.1,-1762.5,-1681.7,-1538.9,-1594.6,-1918.4,-1696,-707.19,-38.116,248.84,232.34,50.157,-220.15,-480.85,-1608.2,-2786.4,-3646.9,-4293.3,-3950.4,-2283.6,-470.89,458.81,1081.6,1954.6,1934.9,1686.4,2067.1,2607.5,2776.8,2158.1,869.17,-256.36,-1119.8,-2484.3,-4087.7,-5325.1,-5332.6,-2985,100.25,2009,3778,4537.4,4213.5,3291.7,2273.9,1810.1,1390,412.3,-746.81,-1438,-397.2,218.53,-669.07,-2061.3,-2204.6,-728.97,400.44,1121.7,1109.8,349.6,-1218.1,-4001.1,-6588.7,-6747.8,-4896.9,-2945.3,-626.73,1805.6,3855.2,3722,2075.8,673.95,220.4,-963.57,-2362.2,-2705.8,-2870.9,-2347.4,-707.85,-983.47,-2220.7,-2762.5,-2394.8,-1622.9,-1692.4,-1940.2,-862.25,24.731,-544.52,-2186.2,-3524.5,-3810.2,-3247.1,-3925.9,-4832.6,-4813.1,-3138,-2068.3,-1279.4,-514.85,-659.93,-1169.1,-864.11,-318.75,-2164.5,-5791.7,-8781.1,-11989,-13800,-12590,-8448.3,-3576.3,739.38,3345.6,3833.3,5500.9,6817.3,5969,4345,2144.3,-375.55,-792.32,415.49,411.42,-101.89,448.51,966.39,-1581.2,-5578.7,-9131.2,-6567.3,-833.81,2854.9,4995.2,3040.7,-587.32,-2636.9,-4653.3,-6046.1,-4871.2,-336.71,3002.1,3191.3,1330.3,-528.81,-3178.1,-6076.3,-5527.2,-3615.9,-3554.1,-5540.6,-5860.4,-2131.8,1990.7,3167.4,2274.4,629.81,-2095.2,-4242.9,-5821.6,-6426,-4644.2,-1056.1,2394.3,3912.5,2833.3,1055.5,625.83,504.12,-1006.1,-1455.7,-1973,-4528.8,-8611.1,-11442,-11759,-13704,-17813,-18382,-12822,-7574.8,-4885.2,-1717,2926.6,6744,9396.5,11270,10706,7365.6,5444.8,5532.9,5884.3,4897.5,3906.9,4465.9,8092.4,9646.4,4689.4,-13.219,950.6,5436.3,5857.6,-1158.5,-9248.8,-10322,-5144.4,-1171.3,-1737.3,-1256.2,337.14,1121.2,1061.6,-2148.7,-4950.5,-4440.6,-6920.6,-12192,-7636.7,296.38,4321.8,4831.1,4880.8,3976,2256.1,-1298.7,-3434.3,-707.2,1496.5,828.17,119.41,-77.066,716.61,860.4,-823.88,-4056.8,-7076.1,-6933.2,-4096.3,-2143.3,-3149.5,-3287.4,-514.02,1391.9,2892.8,3675.3,3422.6,1403.5,-455.91,-2560.3,-5594.7,-7002.9,-6225.8,-5249.1,-3096.6,-293.57,687.39,1539.1,2694.1,3333.5,3465.1,-221.59,-4736.8,-4632.4,-2742.7,-3657.5,-4413.1,-3881.3,-4018,-5396.4,-7047.3,-3952.5,-429.03,-318.29,-113.31,1141.4,3154.7,4341.1,3464.5,2650.8,1814.4,754.6,-495.8,-750.87,-1339,-2696.9,-3233.5,-3078,-2893,-2040.8,-595.8,-174.71,-475.41,-522.07,-1418.6,-2953.9,-3027.3,-2701.5,-3552.7,-4821.2,-5739,-5856.7,-5085.7,-4233.8,-3171,-2074.1,-1587.2,-716.49,-444.5,-1270.1,-1881.4,-1941.3,-1334.3,-916.07,-1554.7,-1420.8,-1109,-1011.8,-772.3,-368.57,-1138.3,-3554.8,-5929.9,-5813,-4760.9,-3586.9,-2148.4,-1328.5,-2810,-4290.2,-3783.7,-1791.4,468.99,1557.7,1845.5,1462,1009.8,296.33,-735.91,-1597.6,-2356,-3066.7,-3237.3,-2355.2,-941.63,31.414,757.9,572.59,-530,-1564.9,-2140.7,-1764.1,-1550.3,-1553.1,-1820.4,-2318,-2314.4,-2127.1,-2217.4,-643.04,2087.4,2053.3,2025.4,3020,3326.5,953.69,-2658,-2098.2,-447.23,-278.08,-2012.9,-2701.4,-2100.2,-1234.4,-705.42,-869.93,-1414.8,-1213,-870.25,-262.71,539.84,1113.8,1247.1,348.38,-1089.9,-2785.5,-4189.2,-4584.1,-3526.2,-1917.3,-55.881,1053.3,576.88,-357.73,-1296.7,-2068.9,-2008.8,-770.74,974.41,1157.5,329.26,-908.73,-1743.3,-1542.6,-117.48,996.27,737.1,-187.84,-1520.5,-2294.7,-1543.7,-305.53,756.98,677.08,-164.31,-1034.9,-1594.3,-1463,-587.88,291.35,193.94,-898.8,-1686.5,-1281.7,-1372.5,-2792,-3000.2,-1675.1,-735.52,-572.63,-408.51,-541.94,-777.03,-900.46,-1575.8,-2575.9,-3481,-3718.9,-3498.9,-3335.4,-2844.1,-2117.8,-597.34,1102.4,653.49,-550.76,-618.04,-710.56,-1410.8,-2498,-3213.1,-2523.5,-908.3,284.25,-743.2,-1438.2,-464.96,-1278.2,-3730.1,-5514.8,-5022.1,-3509,-3311.8,-4346.9,-4856.4,-4559.7,-2961.2,-1194.2,-103.63,468.11,244.65,-318.62,-1336,-1692.5,-1498.3,-1863.2,-1777.6,-1882,-1784.6,-764.21,7.4282,152.88,-158.19,-715.92,-920.08,-1442.9,-2048.4,-1752.6,-880.51,-116.56,124.71,-97.761,-465.76,-871.58,-1177.5,-1628.5,-2186,-2288.5,-2396.7,-2449,-1801.8,-641.63,884.86,2209.7,2522.9,1630.7,-937.61,-3387.5,-4286.1,-3363.2,-1743.9,-592.6,-204.7,-469.62,-1240.2,-2339.8,-3098.3,-2992,-2825.2,-2732.5,-2031.7,-1489,-2047.8,-2825.8,-3907.9,-5316.8,-4822.4,-3759.7,-2704.7,-1894.9,-1226,304.1,1818,1897.3,1140.6,-303.32,-1487.7,-1658.9,-1276.3,-1270.2,-511.16,635.1,1287.2,2417.9,1121.7,-1544.6,-3100.5,-3063.9,-4685.1,-4765.3,-1946.1,-3.8874,269.41,-583.3,-1267.2,-1173.4,-1092.7,-802.3,-366.71,-818.15,-2017.6,-2944.4,-2408,-1843.7,-1594.2,-863.41,746.42,2137.9,859.74,-704.14,-699.6,199.89,478.99,711.28,604.02,-39.652,-1151.3,-1869.5,-1740,-1555.6,-1211.8,-699.54,-1130.5,-1651.1,-1074.1,153.29,587.18,752.94,952.5,359.86,-1561.6,-3174.9,-3034.2,-2762.1,-3211.2,-2671.4,-1274.6,-716.1,-1110.3,-1653.8,-2097.8,-2430.6,-1907.2,-1171.7,-725.51,-572.08,-285.11,-273.43,-589.02,-524.71,-188.15,555.38,864.84,40.524,-1468.3,-2294,-1673.9,-698.18,-566.76,-296.64,-998.14,-1844.1,-2587.9,-2915.8,-2564.9,-1802.4,-1887.9,-2698.2,-3277.1,-3043.6,-2868.1,-1418.8,235.29,1074.7,1364.2,1310.9,420.77,-547.47,-1455.2,-2499.3,-2304.3,-1691.2,-1630.8,-1272,-843.01,-1574.5,-2569.1,-2891.9,-2859.3,-2060.3,-1642.5,-2088.5,-2501.7,-2303.7,-1513.6,-1061.9,-1209.5,-1290.5,-2261.7,-3249.4,-3164.2,-2384.2,-1699.1,-982.69,-771.44,-1203.1,-1377.4,-712.15,-845.63,-1641.3,-2208.9,-2784.8,-2525.8,-1035.6,371.54,1099.5,574.8,-972.89,-1914.1,-1631.4,-1412,-1341.6,-1263.4,-1910.3,-3026.7,-4507.1,-4677.1,-3256.6,-2417.1,-1792.7,-515.42,1146.1,2041.1,1335.5,-103.09,-1043.8,-1158.5,-2448.8,-3436.8,-2571.9,-1979.4,-2117.7,-1623.6,-358.03,-160.78,-722.53,-489.14,-366.51,476.89,1166,-985.29,-3996.2,-5391.4,-4675.2,-2800.5,-820.86,204.31,-103.8,-303.22,-566.77,-1956.5,-3152.1,-2762.9,-1822.9,-1540.6,-1500.4,-1514.7,-2337.2,-3310.2,-3641.4,-2863,-1907.6,-1462.7,-1424.1,-1646,-1730.5,-1364.4,-1317.7,-1005.1,-213.3,830.36,1870.1,1769.4,29.448,-1861.5,-2396.6,-2231.9,-2139.1,-1623.5,-738.18,-555.25,-868.22,-991.3,-954.03,-810.8,-632.92,-460.42,40.89,401.75,248.34,-462.32,-1696.3,-2123.6,-1531.3,-1061.1,-710.57,-365.12,-552.76,-1521.5,-1495.8,-188.09,114.02,-127.3,51.282,560.33,654.19,230.44,-1029.1,-2344.1,-2572.7,-1675.9,-1406.8,-1466.1,-1879,-2086.5,-1669.3,-1467.9,-1663.5,-1756.7,-1496.6,-1381,-1707.2,-2072.6,-2066.9,-1723,-1307.5,-890.77,-1034.6,-1506.2,-1759.5,-1519.3,-1485,-1554.3,-1471.7,-1218.9,-1078.4,-1093.1,-1372.5,-1406.3,-1317.1,-1287.2,-1444.7,-1673.9,-1723.6,-1672.3,-1695.9,-1285.5,-631.43,-446.29,-870.32,-1316.5,-1255.6,-600.56,-794.99,-1346.5,-1543.3,-1737.2,-1714.4,-1998.1,-1633.3,-845.64,-106.32,-428,-995.68,-1180.1,-1257.2,-1320.1,-1278.3,-1101.6,-1066,-1215.1,-1096.5,-1211.6,-1279.9,-1139.1,-1093,-962.1,-1047,-1276.9,-1279.3,-1202.2,-1131.9,-1306.7,-1416.2,-1368.1,-1195,-1108.3,-1338,-1623.4,-1556,-1206.5,-940.55,-945.49,-1026.1,-1337.3,-1386.4,-1101.4,-469.33,73.055,-644.28,-1661.3,-1713.5,-1722.2,-1993.2,-1535,-882.44,-1022.5,-1009.4,-574.55,-766.76,-553.01,-666.66,-1689.3,-2118.9,-1863.6,-1485.3,-1201.5,-982.59,-1145.1,-1155.3,-837.2,-1034.9,-1321.2,-1089,-747.47,-684.55,-688.44,-919.35,-1417.7,-1422.4,-1047.5,-1041.3,-1124.3,-1210.5,-1155.6,-1044.9,-1148.1,-1418.6,-1638.9,-1726.7,-1602.8,-1406.6,-1492.9,-1441.4,-1354.5,-1382,-1449.2,-1337,-1390.5,-1426.4,-1480.2,-1357.8,-1153.6,-1243,-1259.2,-1309.2,-1505.3,-1462.6,-1513.9,-1859.9,-1509.4,-1068.2,-1862.6,-2461.1,-2413.1,-2260.2,-2043.8,-1466,-1913.9,-3246.6,-1957.5,-344.77,-923.74,-1233.7,-1349.3,-1564.1,-1823.8,-2041.7,-1966.1,-1851.9,-1704,-1605.3,-1539.1,-1352,-1114.6,-1074.3,-1260.3,-1444.2,-1554.4,-1507.9,-1411,-1330,-1359.6,-1355.8,-1400.5,-1626.1,-1852.5,-1349.6,-783.92,-1202.1,-1402.9,-1165.6,-1215.7,-1422.1,-1369.8,-1093,-1211.2,-1194.8,-1205.4,-1561.4,-1644.6,-972.7,-570.15,-804.93,-1147.3,-1326.6,-1403,-1470.7,-1673.2,-931.36,-434.73,-670.71,-659.32,-392.5,-442.75,-709.44,-919.84,-823.42,-746.34,-916.15,-984.6,-647.14,-363.6,-609.47,-1013.3,-1078.3,-964.29,-944.46,-1345.2,-1368.5,-853.74,-908.79,-1617.4,-1651.3,-1395.3,-1471.7,-1458.2,-1300.5,-1378.9,-1516.9,-1406,-1323.1,-1363.6,-994.39,-957.46,-1172.8,-1150.7,-1156,-1204.5,-1289.8,-1380.5,-1236.1,-1356.2,-1433.7,-1044.9,-1147.3,-1423.4,-1355.7,-1222.7,-1169.1,-1305.9,-1188.8,-1102.5,-1197.9,-1058.5,-1148.5,-1491.5,-1827,-1612.4,-1094.1,-734.82,-503.47,-659.99,-482.68,-351.58,-482.83,-708.57,-1056.7,-1008.7,-943.58,-1216.4,-1321,-1406.3,-1265.2,-1215.5,-1182.2,-1273.5,-1511,-1648.6,-1484.9,-942.44,-840.51,-1298.1,-1474.5,-1623.3,-1997.9,-1453.5,-1167.2,-1210.7,-1329.2,-1175.1,-969.4,-1297.4,-1558.8,-1622.2,-1611.6,-1543.4,-1227.1,-1452.2,-1694.1,-1128.8,-899.39,-1115.8,-1409.3,-1467.5,-1527.4,-1411,-768.96,-605.18,-1164.3,-1540.1,-1096,-689.88,-1185.5,-2170.8,-2423.6,-1853.2,-1988.3,-1400.4,-913.7,-1209.3,-1624.3,-1719.1,-1489.8,-1434.8,-1429.6,-1306,-1773.5,-1975.8,-1480.4,-890.39,-1117,-1288.5,-1138.2,-1208,-1428.4,-1499.3,-1238.1,-1242.3,-1419.8,-1364.3,-1316.2,-1070,-866.53,-1479,-2053.6,-1767.8,-1559.3,-1624.9,-1860.2,-1972.4,-1833.2,-2007.6,-2258.7,-2197.5,-2139.7,-1816.7,-1318.7,-1058.7,-1106.5,-1418.8,-1668.8,-1946.4,-2081,-1462.1,-1006.7,-1049,-1210.9,-1219.4,-1234.9,-1145.2,-1157.6,-1601.8,-1918.9,-1914.9,-1833.2,-1945.6,-1911.9,-1741.5,-1707.4,-1628,-1612.2,-1600.8,-1515.5,-1552.7,-1645.4,-1594.5,-1804.6,-1923.5,-1679.5,-1467.2,-1617.7,-1224.6,-1023.3,-1258.7,-1278.3,-1082.9,-917.81,-1189,-1007.8,-860.5,-1480.3,-1316.7,-680.88,-507.5,-629.14,-957.2,-1165.9,-678.85,-324.96,-305.69,-445.14,-553.55,-648.6,-607.93,-343.77,-354.5,-542.11,-515.61,-452.58,-277.25,-318.73,-825.78,-1054.9,-1080.5,-1361,-1589.5,-1249.9,-642.31,-647.21,-595.28,-313.81,69.395,-83.827,-707.68,-1057.4,-891.2,-676.48,-730.02,-637.91,-383.12,-566.26,-661.13,-477.45,-535.13,-1075.3,-1422.6,-1023.2,-631.91,-813.29,-1153,-1248.9,-993.21,-939.27,-1112.8,-1065.6,-1124.6,-1098.2,-1407.6,-1409.1,-891.75,-1115.8,-1813.5,-2200,-2235.3,-1732.1,-1301.1,-1319.4,-1566.3,-1920.5,-2062.7,-1996.8,-1860.2,-1681.7,-1671.4,-1451.7,-1716.9,-1761.5,-944.98,-1006,-1825.8,-2123.5,-1873.5,-1697.2,-1767.9,-1784.9,-1632.3,-1436.3,-1991.7,-2104.3,-1486.6,-1248.6,-1130.1,-1082.2,-1083,-1349.8,-1563.9,-1562.1,-1485.9,-1549.4,-1661,-1508.7,-1083.7,-1153,-1431.9,-1167.4,-1185.9,-1321.6,-1115.8,-1268.5,-1708.4,-1983.5,-1951.1,-1075,-724.02,-1872.8,-2550.7,-1894,-830.03,-850.27,-1446.8,-1633.7,-1456.9,-1401.5,-1421.1,-1095,-1317.7,-1412.6,-913.2,-988.9,-1408.4,-1509.6,-1614.6,-1689,-1628.9,-1490.5,-1422.4,-1551.9,-1548.8,-1290.9,-1268.7,-1143.8,-1025,-1245.2,-1558.9,-1499.1,-1237,-1556.1,-2246.2,-2273.5,-1841.5,-2072.8,-2299.7,-1613.2,-808.56,-845.71,-1291.5,-1640.6,-1723.2,-1517.8,-1305.6,-1248.9,-1415.6,-1570.5,-1351.8,-1043.2,-1079.4,-1400.9,-1509.1,-1704.7,-2164.3,-2053.5,-1469.4,-1097.6,-1050.4,-1199.1,-1925.2,-1837,-1302.3,-1265.9,-1350.7,-1283.4,-928.98,-1042.4,-1673,-1891.5,-1389.5,-623.24,-17.165,-40.701,-452.58,-898.7,-1259.2,-1176.9,-804.45,-527.51,-827.01,-1113.2,-834.41,-666.16,-913.89,-874.37,-713.32,-737.82,-771.44,-888.96,-959.01,-1080.4,-1105,-1074.2,-922.22,-861.16,-884.58,-864.38,-933.91,-859.39,-779.43,-724.09,-1076,-1202.2,-904.67,-938.34,-1184.8,-1415.4,-1485,-1029,-1072.3,-1246,-1289,-1342.2,-1188.8,-1145.6,-627.9,81.36,-47.421,-1192.6,-1986.7,-1680.3,-1276.6,-908.93,-875.11,-1287.5,-1659.3,-1286.9,-837.32,-485.52,-228.19,-1263.2,-2027,-1491.5,-887.56,-928.63,-1108,-1300.3,-1158.8,-1116.1,-1329.4,-1467,-1318.6,-1099.3,-984.18,-860.3,-1075.6,-1292.1,-1472.5,-1416.3,-1286.5,-1321.8,-1488.4,-1688.2,-1667.9,-1587.2,-1265.7,-1020.2,-877.09,-947.09,-1477.7,-1863.7,-1792.5,-1690.1,-1798.2,-1899,-1630.4,-1393,-1423.8,-1718.8,-1896.7,-1930.8,-1694.1,-1620.9,-1718.7,-1634.8,-1899.8,-2105.1,-1851.1,-867.46,-1028.8,-2039.7,-2271.4,-1858.5,-1680.1,-1930.1,-2150.3,-1648.9,-1160.1,-1346.7,-1747.3,-1526.7,-870.34,-1172.1,-2009.8,-1811.8,-1088.9,-1275.8,-1910.1,-1718.6,-1485.1,-1277.8,-1185.8,-1774.7,-2111.9,-1836.2,-1258.9,-1270,-1669.4,-1606.9,-1353.3,-1073.8,-807.47,-835.12,-1187.2,-1426.4,-1428.8,-1378.4,-1302.3,-1272.8,-1089.2,-1078.7,-1278.1,-1591.3,-1578.8,-1430.6,-1449.5,-1064.5,-965.05,-958.38,-837.09,-666.39,-707.32,-783.72,-595.17,-453.67,-519.91,-626.24,-762.83,-895.94,-1072.9,-1158.9,-1201.8,-989.17,-839.82,-664.27,-706.83,-801.16,-898.54,-913.85,-859.46,-694,-658.05,-552.75,-311.68,-236.91,-758.44,-1325.6,-1434.5,-1218.4,-947.9,-796.26,-834.48,-901.07,-867.63,-730.92,-648.88,-466.51,61.726,632.13,809.52,478.41,-38.939,-115.17,-151.31,-1461.2,-3123.3,-3875.8,-3761.4,-3296.6,-2639.8,-1911.1,-1627.9,-1814.9,-1669.7,-1334.7,-1287.5,-1439.5,-1709.5,-2373,-2815.6,-2372.6,-1585.9,-1581.9,-1669.2,-1414.1,-1353.1,-1368.3,-1605.2,-1930.5,-1832.2,-1434.8,-869.94,-262.58,-339.7,-1117.8,-2203.1,-2876.1,-3337.3,-3256.7,-2986.6,-2989.5,-2734.3,-2219.5,-1509.5,-1026.5,-1686.1,-3344.9,-4371.5,-4027.1,-2692.1,-988.33,-676.27,-1900.1,-3438.7,-4391.5,-4200.7,-3889.8,-3848.1,-3254.6,-1646.8,90.149,1154.1,1651.7,2031.9,2099.9,1813.5,20.764,-2228.7,-3370.1,-2987.4,-600.48,1717.5,1811.9,1338,1059.3,536.02,166.67,-94.646,-549.98,-1706.1,-3138.6,-3547.9,-3218.2,-2632,-2924.4,-2749.5,-1100.8,268.11,953.79,617.09,-261.7,-286.64,660.68,990.14,1092.4,661.22,-758.12,-1602.4,-266.83,1179.7,1844.7,1703.8,1030.8,-117.37,-1862.5,-3800.3,-4786.4,-5307.3,-5653.2,-4866.1,-2601.5,-814.19,-606.04,-687.44,-1379.9,-2424.9,-2788.9,-2891.9,-333.93,3155.6,4545.1,4909.7,5755.1,6471.2,5214.4,886.62,-3579.3,-6734.9,-8219.4,-8214.8,-7679.9,-6052.8,-4237.1,-2477.1,-618.32,244.35,267.04,288.34,0.91464,-451.99,-540.82,-882.63,-300.54,760.06,463.14,733.27,2429.4,3881.1,4148.6,2986.6,603.34,-883.83,-816.12,-433.33,471.07,590.41,-431.44,-1999.3,-2559.2,-1598.9,-839.59,-316.09,355.99,-596.22,-1823,-2212.8,-2516.3,-2892.1,-3652.2,-4445.2,-5445,-5563.7,-3528.7,-1338.6,158.62,-77.332,-1854.9,-4097.5,-6199.9,-6391.7,-5603.9,-5963,-6311.5,-7436.8,-8389.2,-6587,-1664.6,3891.7,6860.1,4372.5,206.19,-2152.6,-1671.1,-50.46,117.19,-560.88,-1295.5,-2337.4,-2872.1,-1845.4,-1871.7,-2371.6,-1677.1,-661.27,-1126.5,-2588.5,-4192,-6102.6,-9396.6,-10705,-5902.4,883.3,2634.3,759.92,557.93,3471,5240.3,3681.9,-190.21,-4189.5,-6877.3,-6804.8,-4356,-2304.3,-1306.2,-1192,-80.022,1413.6,1803.1,1886.8,325.43,-3161.7,-5408,-5635.9,-4634.8,-2544.5,-956.07,-1119.4,-2612.8,-3056,-1607.1,-24.711,880.49,742.16,-1080.2,-2053.2,-2498.9,-2791.2,-2697,-774.96,1295.1,2805.3,3816.9,1337.7,-5900.7,-10676,-4723.6,1072.6,1703.7,942.47,1858,3757,4518.2,5337.1,4977.8,2295.7,-935.02,-2034.5,-1936.3,-1546.5,-438.72,-373.57,-30.474,3573.2,6313.4,6901,1504.9,-5903.1,-9126.6,-5685.9,-2559,-776.23,272.3,303.99,-231.33,-261.68,-1721.7,-6318,-3554.6,3985.4,5387.9,3769.5,1246.7,-10.712,-1441.8,-1993.2,-1753.9,-1239.2,-971.48,-693.96,-868.59,-1539.4,-1856.3,-1298.2,-226.75,-121.74,-2322.2,-4884,-5181.2,-3984.8,-3631,-3705.5,-3086.7,-1637.7,450.04,2416.8,1880.3,-421.21,-1884.6,-2011.6,-2398.3,-3127.1,-2283.7,-2004.4,-1403.3,-563.66,139.38,1090,815.58,-454.89,-1187.6,-939.11,-342.49,18.912,1005.4,2525.3,4202,1813.7,-5002.4,-8576.5,-7188,-4454.5,-2572.3,-1592.5,-1122.3,-1436.8,-1977.5,-2423.4,-2545.3,-3525.6,-3973.8,-3941.7,-3069.6,-1303.3,399.33,679.76,211.81,-1104.8,-3230.9,-3105.2,-798.36,588.26,225.23,-961.2,-2330.9,-4279.4,-3824.3,-1561,-1601.3,-2164.6,-2378.3,-2341.5,-1468.3,-1143.2,-1306.9,-1206.5,-636.52,-1137.7,-3824.1,-6293.4,-6728.6,-5631.8,-3413.8,-1490.7,-1153.3,-1555.5,-1519.2,-1119,-1012,-2169.5,-2703.9,-2161.5,-1825.6,-1949.9,-1540.5,-103.43,510.77,348.64,159.69,464.27,713.5,219.15,-286.01,-1682.2,-3544.7,-4030.1,-2790.5,-2772.8,-3111.1,-721.88,943.53,52.785,-1665.8,-2380.1,-2085.1,-1596.4,-1662.5,-1779.6,-1024.9,130.14,697.05,354.6,-919.98,-3009.7,-4732.5,-5034.1,-3997,-2397.2,-666.02,1211.4,2011.9,1738.4,653.91,-834.27,-1781.6,-1288.6,-1110,-1135.1,-415.73,-321.48,-901.66,-848.04,-837.54,-699.03,-1335.2,-2753,-3000.4,-1867.8,-1416.9,-1732,-1060.4,882.94,1930.7,2570.5,3030.4,1732.1,-106.12,-693.57,-661.34,-372.22,6.8011,-343.34,-508.72,-521.87,-530.4,-277.27,-163.98,-617.55,-1034.7,-847.23,-13.582,556.42,313.3,-448.7,-1187.2,-1609.6,-1502.6,-476.32,-3.966,-475.58,-1060.8,-1557,-1340.4,-1423.8,-1476.8,-1240.1,-888.24,-1191.1,-1103.9,569.86,777.7,-853.6,-1898.6,-2666.2,-3079.6,-2097.2,-1733.9,-2073.1,-1770.2,-1549.8,-2416.7,-3061.7,-3115,-2971.1,-2176,-405.48,-57.807,-1161.2,-2183.7,-2157.6,-1622.9,-1785.4,-2289.2,-1853.3,-673.74,-392.95,-889.66,-1310.6,-1870.3,-2152,-1887.2,-1344.8,-1073.8,-748.84,-440.35,-113.4,182.8,-6.3258,-520.4,-936.57,-833.91,-651.01,-833.52,-1368.6,-2143.2,-3198.4,-3303.8,-1476.8,38.93,-48.696,-799.71,-1432.3,-1508.9,-3077.8,-4033.7,-3390.7,-3077.2,-3927.5,-4114.2,-3765,-3745.8,-3182,-2069.1,-333.23,997.99,1365,1035.2,1289.2,668.77,-776,-1974.9,-2421.3,-1715.8,-815.72,-422.97,-299.64,-149.84,167.06,79.907,-763.56,-1993.3,-1913.7,-1328.7,-1528.9,-1844.2,-2404.2,-2955,-2938.9,-2570.7,-2513.3,-2561.7,-2701.5,-3047.4,-2843.3,-2688.8,-2868,-2520.1,-1510.8,-667.58,-671.78,-1128.7,-1254.4,-1170.3,-813.02,-489.16,-138.2,940.86,968.12,-641.48,-2592.7,-2596.3,-2963.2,-3765.8,-1098.1,-1237.8,-1193,-1251.9,-1383.2,-1127.1,-982.12,-994.85,-1049.2,-1105.1,-1142.3,-1329.8,-1406.3,-1258.8,-1242.5,-1195.1,-988.81,-993.11,-1166.9,-1250.5,-1363.7,-1313.9,-1102.5,-1022,-974.83,-978.17,-1052.9,-992.98,-854.06,-987.25,-1447.4,-1374.7,-791.31,-674.69,-834.74,-991.23,-1027.2,-1158.9,-1105.4,-810.72,-782.34,-859.43,-801.37,-708.37,-1223.9,-1759.9,-1682.5,-1110.5,-1007.9,-1082.3,-822.62,-696.88,-598.27,-1040.3,-1592.8,-1425.5,-1528.4,-1591.9,-1081.2,-948.93,-1160.5,-1199.8,-1165.8,-1101.9,-907.68,-822.14,-699.69,-602.54,-859.86,-1305.3,-1488.5,-1025,-564.95,-827.48,-1240.6,-1365.6,-1283,-1033.7,-806.78,-800.75,-644.07,-402.37,-204.27,-322.33,-763.52,-853.84,-956.1,-1241.7,-1498.5,-1327.8,-1220.6,-1191.2,-1301.2,-1529.8,-1738.3,-1921.4,-1984,-1911.3,-1456.1,-1377.5,-1600.6,-1765.3,-1947.4,-1789.3,-1293.6,-1233.7,-1665.8,-1719.3,-1169.2,-997.33,-1426.2,-2296.3,-2339.8,-1800.7,-1704.2,-1886.7,-1537.1,-1291.2,-1540.5,-1384.1,-860.6,-1028,-1327,-1425.2,-1439.6,-1393.3,-1413.1,-1478.1,-1440.7,-1397.1,-1433.4,-1403,-1466.6,-1503.5,-1459.4,-1538.5,-1469.4,-1201.4,-1087.6,-1096.4,-1453.3,-2334.8,-2796,-2474.9,-2205.5,-1756,-1793.7,-2092,-1751.8,-1340,-1459.4,-1791.8,-1858.6,-1604.6,-1515.2,-1504.3,-1343.6,-1290.4,-1453,-1715.9,-1700.5,-1807.5,-2005.8,-1326.1,-951.81,-1218.2,-1371.9,-1421.7,-1502.6,-1275.7,-889.5,-753.1,-666.71,-614.74,-839.24,-1470.9,-1812.4,-1680.3,-1328.8,-1052.8,-992.18,-1120.5,-825.15,-785.35,-1186,-1595.8,-1779.2,-1326.5,-1050.8,-1028.8,-938.71,-935.39,-1207.3,-1586,-1564.4,-1137,-824.15,-992.28,-1267,-1226.1,-902.4,-908.47,-923.55,-473.67,-179.23,-372.29,-726.48,-730.61,-719.59,-573.53,-595.34,-604.72,-710.12,-841.92,-815.19,-941.56,-1018,-968.51,-736.28,-856.69,-877.47,-587.06,-485.22,-684.18,-800.64,-890.62,-1092.9,-1147.6,-983.73,-939.05,-865.46,-899.22,-1526.1,-1642.6,-1365,-1422.3,-1310.2,-1220.4,-1204.2,-1163.5,-1098.5,-1069.7,-1329.7,-1655.8,-1158.8,-600.17,-907.78,-1488.4,-1593.7,-1490.9,-1579,-1562.6,-1549.5,-1453.9,-1585.5,-2082.6,-2237,-1867.7,-1663.1,-1542.1,-1394.7,-1619.1,-1387,-1012.2,-1166.3,-1563.6,-1657,-1735.9,-1570.1,-1204,-968.7,-1104.8,-1694.9,-1838,-1552.1,-1382,-1664.5,-1778.6,-1529.7,-1460.6,-1788.1,-2119.9,-2237.4,-1905,-1691.3,-1601.4,-1258.3,-1221.6,-1492,-1323.3,-979.61,-1004.1,-1042.6,-1036,-919.75,-945.73,-881.7,-979.77,-1143.6,-1245.2,-1234.6,-1159.3,-1008.7,-981.75,-1110.9,-1322.4,-1422.3,-1382.8,-1076.3,-384.94,-480.25,-947.3,-1237.2,-1380.4,-1237.6,-1467.8,-1725.6,-1743.8,-1653.9,-1386,-1102,-903.76,-1307.1,-1597,-1548.7,-1379.1,-1379.6,-1348.6,-1339.4,-1437.2,-1605.4,-1717.3,-1862.2,-1992.3,-1889.4,-1650.5,-1494.2,-1579.7,-1624,-1648.4,-1611.1,-1463.1,-1106.8,-668.29,-797.75,-1224.3,-1404.5,-1794,-2268.9,-2352.9,-1910.4,-1405.7,-1342.7,-1183,-1046,-1417.3,-1729.1,-1719.5,-1303.6,-704.3,-762.87,-1184.9,-1315.6,-1220.3,-1241.1,-1350.8,-1300.4,-984.68,-634.08,-685.46,-1112.4,-1461,-1281.5,-1011,-927.82,-1052.9,-963.82,-619.66,-530.94,-737.74,-922.78,-1008.8,-1129.6,-1099.3,-1143.9,-1101,-714.01,-822.72,-1684.7,-2117.3,-1570,-1164.6,-1049.7,-908.23,-802.98,-1074,-1333.9,-1537,-1209.4,-989.46,-1107.7,-976.91,-954.08,-1729.7,-2176.1,-2144.7,-1796.6,-1383.5,-1094.3,-629.02,-496.98,-783.32,-1025.4,-1017.9,-1005.8,-1350.6,-1443.2,-1424.2,-1396.6,-1347.3,-1395.2,-1351.7,-1063.7,-775.78,-1042.8,-1038.4,-534.62,-614.15,-1230.3,-1307.6,-671.7,-389.85,-630.25,-952.02,-1182.2,-1230.4,-1309.6,-1528.3,-1531.2,-1464.1,-1373.4,-1207.8,-1307.7,-1268.8,-1150.3,-1008.4,-1007.4,-1098.1,-1183.6,-1335.7,-1368.4,-1479.3,-1390,-1518.1,-1594.6,-1687.5,-1813.7,-1727.6,-1516.9,-1241.2,-948.06,-1089.7,-1504.1,-1694.2,-1437.1,-1197.2,-1463.3,-1503.7,-1584.3,-2123.7,-2192.2,-1746.4,-1377.9,-1184.7,-1306.7,-1252.2,-1197.6,-1183.2,-1006.7,-1106,-1312.7,-1167,-968.29,-904.38,-1131.1,-1280.8,-1561.3,-1583,-1407.8,-1600.1,-1374.2,-1076.6,-1763,-2422.7,-2105.2,-1653.8,-1551.7,-1367.6,-550.69,-321.2,-1090.1,-1813,-1974.9,-1867.2,-1528.1,-1394.5,-1429.2,-1996.4,-2339.9,-2318.8,-2013,-1550.7,-1618.7,-1542.3,-1152.7,-827.29,-546.05,-1170.5,-2011.7,-1994.9,-1787.8,-1858.6,-1789.4,-1561.6,-1427.3,-1718.4,-2017.7,-1704.8,-1132,-980.21,-1163.4,-1078.5,-663.2,-621.96,-792.49,-790.28,-1077.8,-1206.2,-968.06,-794.2,-933.81,-1074,-1228.8,-1157.4,-1048.6,-907.02,-708.69,-617.97,-281.52,-128.61,-430.36,-633.44,-710.39,-872.52,-989.46,-1069.7,-1108.5,-1104.7,-1447.8,-2103.4,-2115.2,-1160.8,-770.26,-1242.4,-1286,-705.76,-318.32,-419.16,-718.58,-946.96,-1278.9,-1391.4,-1310.3,-1344.5,-1530.5,-1577.2,-1726.3,-1586.2,-1437.7,-1283.4,-1155.5,-979.73,-779.21,-681.94,-900.37,-1364.3,-1781.6,-1718.2,-1221.6,-680.98,-779.88,-1523.4,-1909.3,-1930.3,-1846.3,-1608.2,-1280.9,-654.58,-191.62,-61.383,-51.506,-276.96,-719.83,-1329.8,-1439.3,-506.55,699.26,937.49,202.67,-121.11,-314.68,-354.89,-913.66,-2258.2,-2790.7,-2275.5,-1467.5,-956.3,-730.91,-513.19,-204.47,303.15,799.55,907.52,658.79,-558.22,-2843.8,-4583.4,-5019.2,-4567.3,-3920.3,-3041.2,-1567.5,-462.18,-180.93,-298.18,-870.02,-1227.1,-1000.9,-1510.6,-2168.8,-2587.1,-2537.6,-3090.9,-4048.6,-3986,-2843.7,-1887.7,-1502.9,-1176.6,-1014.9,-1311,-2025.5,-2490.2,-2680,-2759.5,-2744.4,-2629.1,-1974.5,-905.04,-255.72,393.58,841.17,945.42,926.91,400.91,-588.92,-1356.5,-1334.7,-1252.2,-2106.8,-2260,-777.45,805.99,1925.5,1567.7,-651.5,-3196.8,-4719,-5899.1,-6711.7,-7199,-8847.8,-11097,-11402,-8238.5,-1817.8,3493.7,6174.7,6160.1,3716,-120.38,-4444.3,-8982.1,-11672,-10756,-8479,-6122.6,-3544.7,560.43,6664.3,10802,10411,5658,-2913.3,-12636,-18718,-18718,-11368,-2474.2,7470.9,15029,14997,10755,6135,947.07,-3831.6,-6813.7,-6450.7,-5680.7,-4225.5,-1672.8,1507.9,4081.2,5769.3,7241.3,7655.1,7082.2,5695.2,2437.3,-1390.7,-1342.2,798.67,30.714,-1160.8,409.32,2144.9,2776.1,2672,2680.3,1977,74.635,-1605.8,-2628.8,-2525.3,-1243.1,225.35,1639,2810.7,1901,56.305,-928.59,-486.8,1220.8,1732.1,2302.3,2613.5,2105.1,817.22,-728.74,-1985.1,-2760.7,-2763.1,-2724.7,-2590,-2035.9,-1602.5,-1841.8,-2803.7,-3370.6,-3044.1,-2696.4,-1591.6,-666.01,-332.54,-480.71,-1113.8,-706.48,396.19,1269.9,40.285,-3174.3,-4724.4,-4083.8,-3644.2,-4022.1,-5034.8,-5512.2,-4018.3,-810.79,1467.1,429.03,-2655.2,-4563.4,-6738.8,-8487.7,-7957.2,-6180,-4516.1,-2876.1,-1058.4,-1322.2,-3408.1,-2245.4,448.3,1172.4,569.68,-888.29,-2285.5,-2285.3,-1523,-1400.4,-1467,-51.11,778.01,194.97,140.81,-10.612,-1124.1,-1232.5,-988.72,-3931,-7423.4,-8994.2,-7123.3,-2523.5,-59.558,-51.403,-764.59,-705.77,-1790.2,-3777.4,-3875.4,-3682.3,-4216.7,-4959.4,-5505.1,-5966.8,-6163.5,-6950.9,-8776.1,-8769.6,-6348.2,-4411.1,-3098.9,-2880.2,-2993,-2679.6,-2364.2,-1921.9,-1875.4,-1069.4,976.02,1549.9,-913.93,-2543.9,-2923.9,-3495.1,-2235.8,-702.82,-853.9,-660.1,905.98,-555.49,-3473.3,-5427.6,-6151.3,-6481.5,-7920.2,-8706.3,-7424.8,-6976.4,-7344.6,-4350.4,776,3581.1,2960.4,1267.7,1920.6,3165.8,4760.6,7268.4,9337.1,7992.1,5209.5,2845.1,2419.3,2604.3,1744,2291.4,3230.9,3684.3,3534.2,1073.8,-2221.6,-2891.2,-1370.8,14.426,214.26,786.73,1865,1599.5,2747.2,5742.1,6694.8,5839.3,5132.5,5235.6,4110.1,1277.2,621.95,1171,1161.2,1031.2,1324.6,2690.6,2696.5,1491.9,1265,1001.9,237.9,-107.24,1686.6,3146.9,3565.6,3784.3,3661.2,3533.7,3537.8,2574.7,672.53,-380.68,-1367.1,-2378.2,-2073.8,-1684.1,-2690.2,-1521.1,1232.9,1998.9,-48.828,-2100,-4157.2,-5597.3,-5080.5,-4827.8,-4820.7,-2984.2,-166.61,976.82,878.19,824.82,629.02,787.18,-110.65,-2335.7,-4382.4,-5623.3,-6321.4,-6518.1,-5729.8,-3242.3,-47.316,1137.1,-622.86,-1834.2,-978.08,724.38,724.79,-1325.6,-3510.5,-4322.3,-4355.6,-4804.2,-5156.2,-5937,-5879.5,-4469.6,-2340.6,-1617.9,-3577.7,-6504.7,-7568.8,-7504.3,-8700.2,-9259.3,-8286,-6386.3,-3971.5,-916.84,292.75,-203.23,-618.96,-2327.1,-5953.8,-6947.1,-6078.9,-4114.6,-1997.5,-1391.7,-1568.2,-1526.4,-2431.3,-5236.3,-6570.2,-6618,-7437.6,-7171.8,-5842.5,-5501.3,-5882.2,-5088.2,-3285.9,-2449.9,-4035.3,-4969.8,-4215.1,-4208.5,-4838.9,-5140.2,-4146.7,-3077,-2473,-1589.4,-1259.8,-1878.6,-2643.2,-3551.7,-3531.9,-3570.8,-3970.5,-2964.7,-1440.3,-1019,-835.61,-2079.2,-2786.7,-1626.4,-1177.5,-1710.3,-1726.6,-1317.4,-1656.5,-95.278,1477.1,69.637,-2953.8,-4532.5,-4697.5,-4732.7,-4467.3,-2376.1,294.29,3960.1,4462,1995.6,85.415,-58.571,606.98,434.7,-309.61,-75.737,-1853.9,-4742.3,-5349.3,-2118.4,3303.1,7543,8101.1,6103.3,4371.9,3455,3357.3,2931.2,2278.8,2619.7,3602.4,3822.5,3474.3,2989.6,2725.5,2647.8,2733.2,2891.5,2960.4,2420.3,2379.9,3310.6,3139.3,1483.5,872.97,645.6,1356.9,3679.9,4484,4388.1,4158.6,3478.8,2935.8,2465.7,2337.9,2341.3,1702.5,1098.5,1523.1,2704.3,1911.3,820.53,1064.4,1239.5,1269.1,1649.7,3056.1,4103,4853.2,3780.2,2812.1,1870.9,1106.9,1284.9,1795.1,951.69,-431.36,-739.14,-548.82,-459.13,-75.332,-3.4733,-1976.3,-3034.8,-2216.6,-2272.7,-3316.8,-3990.7,-3406.7,-1457.8,-49.43,-715.69,-2248,-2777.6,-3240.2,-3938.2,-4651,-5219.2,-4470.7,-3332.2,-1974.3,-1758.7,-1683.1,-2226.7,-2940.3,-3091.4,-4721.4,-6043.9,-6378.4,-5862.7,-2936.7,-907.91,-1161.5,-1874,-2048.7,-1847.9,-2392.6,-2635.6,-2365.3,-3024.3,-4661.4,-5171.5,-4069,-3366,-2896.5,-1718.1,-2351.6,-4218.2,-5872.6,-7097.4,-7037,-6418.2,-5561.7,-4858.2,-4990.1,-6106,-7660.2,-9165,-9558.6,-8537.7,-6492.4,-5196.9,-5552.1,-5844.2,-5296.5,-4361.1,-4418.1,-6390.1,-8345,-7530.4,-5848.4,-4336.8,-3113.2,-2485.4,-2748.6,-4098.9,-4956.2,-4438.4,-4612.2,-4191.3,-3105.5,-2878.8,-2479.4,-1911.2,-2741.6,-4018.6,-3936.7,-4134.6,-4493.9,-4613.3,-3783.9,-4129.5,-3950.7,-4032.4,-3985.6,-4075.6,-3735.9,-2394.8,7.0792,1374.6,1291,954.02,-656.74,-2259.2,-2628.9,-2496.9,-1551.4,-1345,-969.4,522.32,2031.8,1182.4,-795.81,-679.25,319.5,565.86,73.987,-923.74,-1963.8,-2982.6,-2600.2,-1852.6,-1457.3,921.78,2490.7,2277,2267.8,2333.4,2804.6,2757.2,2287.3,2553.6,1957.1,1158.4,1478,1291,979.54,1823.1,1779.6,1092.5,849.19,1179.8,1632.6,1026.8,893.55,1354.2,1105.2,1215.2,1376.2,1798.4,2690.5,4616.5,6278.2,6664,6616.1,5517.3,4178.9,2162.1,356.21,-1422.1,-1684.7,-346.97,702.06,1367.9,1761.5,1001.1,1237.3,4046,5824,4523.8,4329.2,5589.4,5549.4,3909.7,2190.5,1169.9,1045.6,1551.2,1873,1738.3,2190.7,3537.6,3495.2,2859.4,2732.2,2734.5,1849.1,861.72,534.93,318.56,537.12,883.17,480.81,-256.62,-770.48,-1271.6,-1031.5,-470.48,-518.39,-1002.8,-1344,-926.43,-237.2,-1016.5,-2068,-1671.2,-602.13,-784.79,-1525.1,-1400.4,-1713.8,-1234.6,-934.24,-1505.1,-2053.5,-2527.3,-2462.5,-2452.6,-2395.1,-2919.6,-3851.1,-4580.7,-4811.6,-4379.7,-2565.1,-729.16,-981.57,-1781.6,-2683.6,-3334.5,-3755.5,-4431.2,-4916,-4435,-4348.7,-4718.5,-4529.4,-2770.7,-1384.5,-1701.9,-3119.8,-4255.6,-4156.1,-3901.4,-3811.4,-4231.3,-4520.4,-4720.5,-5311.7,-5988.9,-5729.3,-4748.8,-4155.6,-4024.1,-3662.2,-3967.3,-4771.8,-5771.7,-6375.3,-6750.3,-6947.4,-6456.9,-6037.3,-5801,-5740.9,-6116.2,-7031.4,-7549,-6508,-4442.3,-3370.1,-3244.9,-3276.9,-3828.7,-1254.9,-1211.9,-1267.8,-1414.1,-1445.1,-1424.4,-1493.7,-1558.7,-1689.1,-1578.8,-1484.6,-1472.5,-1573.5,-1616.6,-1288.4,-939.06,-897.03,-971.58,-846.91,-784.7,-929.43,-1197.8,-1259.7,-1140.7,-1127.2,-1171.6,-1193.9,-1137.3,-1095.9,-900.86,-914.31,-1008.1,-1159.5,-1270.4,-1236,-1217.4,-1471.4,-1245.9,-1158.5,-1208.7,-1287.3,-1176.6,-1115.1,-1222.7,-1251.7,-1238.5,-1172.4,-1092.4,-1039.2,-1040.1,-1138.8,-1246.3,-1279.8,-1266.2,-1364.4,-1547.7,-1484,-1336.2,-1254,-1414,-1489.2,-1434.2,-1297.6,-1446,-1462.1,-1287.6,-1377,-1653,-1604.9,-1282.5,-1187.9,-1320.9,-1220.5,-1207.4,-1190.9,-887.74,-861.2,-1143.4,-920.68,-795.76,-1573.7,-1944.5,-1302.9,-670.09,-753.05,-1148.2,-1461.3,-1367.3,-1105.2,-927.8,-958.5,-853.06,-953.2,-1016.4,-1031.3,-1025.2,-1059.6,-1222.6,-1569.1,-1665.8,-1583.2,-1409.4,-1336.1,-1335.3,-1367.5,-1310.1,-1169.9,-1208.5,-1249.7,-1341.7,-1296.3,-924.26,-917.97,-1496.7,-1800.7,-1563,-988.57,-951.39,-1297.7,-1499.8,-1630,-1501.2,-1374.6,-1454.8,-1575.5,-1652.9,-1804.4,-1741.2,-1608.5,-1495.6,-1505.6,-1601.4,-1705.8,-1565.1,-1365.8,-1220.5,-1267.1,-1437.9,-1463.3,-1300.5,-1186.9,-1322.2,-1288.4,-1018.7,-1011.7,-1102.6,-1045.3,-1031.9,-1205.5,-1322.2,-1460.8,-1342.6,-1255.3,-1326,-1195.7,-1138.7,-1218.3,-1310.7,-1298.7,-1321.4,-1360,-1026.1,-941.95,-1436,-2011,-1962.7,-1822.3,-1639.4,-1435.3,-1365.6,-1236.3,-1002.2,-872.24,-721.79,-946.74,-1194.8,-1119,-946.74,-985.26,-1026.6,-1145.8,-1269,-1471.6,-1250.4,-988.2,-1243.3,-1498.4,-1398.9,-1313.1,-1172.9,-956.68,-732.88,-1074.9,-1607.7,-1442.5,-1041.9,-1096,-1261.4,-1387.7,-1610.6,-1727.6,-1726.6,-1685.5,-1741.4,-1830.8,-1722.5,-1425.2,-1496.6,-1591.8,-1476.6,-1239.8,-1174.2,-1257.6,-1344.3,-1383,-1567.9,-1809.7,-1857.3,-1487,-1245.9,-1167.6,-888.29,-984.41,-1194.5,-1282.9,-1067,-1207.4,-1334.6,-1101.3,-748.78,-697.43,-817.71,-864.67,-1011.8,-1291.8,-1275.7,-978.8,-858.04,-1027.7,-1086,-1002.2,-1229.8,-1524.3,-1483,-1284.3,-1008.6,-890.43,-1028.7,-1146,-1228,-1330.4,-1501.4,-1261.3,-680.31,-766.53,-1187.3,-971.95,-929.17,-801.4,-595.64,-783.75,-1242.6,-1528.5,-1776,-1639.9,-1712.6,-1400,-887.56,-1217.6,-1431.9,-973.24,-469.6,-878.7,-1400.4,-1645.4,-1567.7,-1553.2,-1418,-1269.8,-1146.4,-964.55,-1360.1,-1693.1,-1573.4,-1429.6,-1348.4,-1382.1,-1508.3,-1358.2,-1431.3,-1445.1,-1479.1,-1633.6,-1605.5,-1601.1,-1481.1,-1164.2,-1193.9,-1216.4,-1301.3,-1426.7,-1280.2,-1269.6,-1440.2,-1473.4,-1440.1,-1437.6,-1590.8,-1475.2,-1214.4,-1074.2,-1266,-1588.7,-1762,-1470.2,-1015.7,-1107.7,-1824.9,-2106.8,-1810.9,-1447.1,-1268.8,-1487.2,-1716.4,-1493,-1105.3,-1127.2,-1454.8,-1812.4,-1698.4,-1343.8,-1152.5,-1171.6,-1285.9,-1238.8,-1080.2,-1174.9,-1185.7,-1007.8,-832.45,-929.09,-1178.6,-1215.9,-1445.3,-1583.3,-1285.1,-952.3,-1011.1,-1114.8,-1188.3,-1236.9,-1275.4,-1129,-1215.1,-1395.8,-1247.1,-849.58,-795.87,-1122.2,-1245.2,-1166.9,-994.95,-630.08,-250.48,-216.44,-393.55,-1088.6,-1293.6,-867.7,-811.5,-1116.7,-1098.6,-1055.5,-1123.9,-1021.3,-816.59,-729.43,-885.95,-906.47,-1377.5,-1736.3,-1519,-1325.8,-1285.9,-1440.8,-1475.9,-1466,-1055.9,-1140,-1537.5,-1817.3,-1607.9,-1147.4,-1313.3,-1643,-1933.9,-1973.4,-1359.9,-1109,-1216.2,-1311.4,-1450,-1523.1,-1476.9,-1420.4,-1523.5,-1715.9,-1877.5,-1729.7,-1489.6,-1460.4,-1526.8,-1526,-1333.6,-1080.5,-1259.8,-1504.9,-1706.8,-1824.8,-1914.2,-2047.6,-2004.2,-1775.5,-1802.7,-1709.8,-1609.6,-1530.3,-1794.4,-1699.7,-1399.3,-1315.8,-1271.8,-1230.8,-1262.8,-1294.2,-1263.7,-1352.4,-1288.1,-1215.8,-1409.1,-1434,-1121.1,-1004.5,-1218.7,-1626.7,-1622.8,-1024.1,-572.05,-587.46,-637.83,-726.95,-931.19,-909.13,-770.28,-802.98,-1021.2,-1356.1,-1353.6,-1189.7,-851.29,-756.88,-973.43,-1267.3,-1415.3,-1444.2,-1181.6,-801.95,-768.11,-796.51,-1106.8,-1479.5,-1687.2,-1644.3,-1519.9,-1189.6,-1249.8,-1465.9,-1215.9,-1118.8,-1410.2,-1208.5,-783.72,-936.49,-954.62,-826.17,-921.09,-1014.9,-1056.2,-1168.7,-1307.7,-1472.3,-1459.5,-1358.9,-1935.1,-2444.7,-1968.3,-1490.6,-1436.8,-1472.5,-1049.2,-648.62,-684.93,-1126.2,-1518.3,-1600,-1569.2,-1608.4,-1605.5,-1464.3,-1246.3,-1118.9,-1230.2,-1378.3,-1377.9,-1046,-1080.6,-1142,-382.06,91.279,-579.67,-1312.7,-1212.2,-1067.6,-1196.4,-1353.7,-1284.8,-1227.2,-1057.8,-982.31,-1125.3,-1367,-900.48,-398.49,-427.05,-647.4,-962.78,-934.57,-1016.3,-1234.3,-1435.9,-1576.5,-1606.2,-1236.4,-961.83,-1067.5,-1521.3,-1700.6,-1656.1,-1730.8,-1705,-1396.3,-1241.1,-1568.7,-2002.2,-1836.9,-1253,-1113.3,-1493.1,-1822.8,-1651.8,-1233.3,-1094.3,-1586.4,-1833.6,-1682.3,-1359.9,-1109.1,-1026.5,-1097.1,-1165.7,-1217.4,-1334.7,-1426.9,-1507.6,-1433.8,-1291.3,-1196.3,-1263.6,-1390.7,-1281.8,-1562.4,-1910.6,-1561.6,-899.23,-1009.1,-1311.6,-1191.8,-1101.4,-1413.5,-1901.7,-1827.4,-1254.7,-861.35,-1077.9,-1237.8,-1268,-1256,-1272,-1475.4,-1460.6,-1510.4,-1876.7,-2005.2,-1526.6,-1300.7,-1262.5,-974.61,-797.59,-1169.6,-1482.4,-1631.9,-1585.4,-1387.7,-1395.8,-1494.1,-1536.8,-1464.3,-1330.5,-1280.6,-1308.3,-1319.2,-1132.2,-850.21,-802.34,-874.34,-1103.4,-1187.5,-1077.7,-1167,-1423.4,-1920.8,-2244.6,-2068.2,-1673.6,-1243.7,-1153.6,-1492.9,-1635.1,-1618.6,-1346.1,-1195.7,-1262.4,-1431.5,-1411.7,-1195.9,-1375.5,-1496.7,-1585.8,-1742.8,-1838.4,-1599.2,-1211.7,-952.73,-696.6,-721.7,-793.03,-217.85,-173.82,-991.7,-1402,-1158.8,-1012.3,-943.48,-857.95,-1164.6,-1507.7,-1347.2,-941.66,-598.83,-726.67,-1004.7,-1073.1,-849.8,-778.49,-1172.9,-1341.2,-993.33,-1076,-1266.1,-1351.1,-1309.8,-1293.5,-1397.3,-1547.3,-1662.3,-1539,-1369.7,-1395.8,-1356.5,-1197.7,-877.37,-921.24,-1176.3,-1455.3,-1206.7,-869.52,-1126.8,-1711.2,-2157.2,-2080.1,-1940.9,-1898.2,-1709.6,-1580.2,-1311,-1073.9,-915.45,-956.29,-1247.6,-1497.7,-1568.8,-1452.5,-1101.5,-1121.7,-1676.5,-2227.8,-2310.6,-2076.7,-1836.6,-1470.3,-1177.2,-864.39,-578.83,-364.2,-297.88,-449.59,-1243.1,-1705.7,-1508.4,-1128.6,-1025.7,-1231.4,-1836.7,-2197.3,-1916,-1378.8,-1123.5,-873.77,-352.91,-211.16,-473.99,-682.66,-884.39,-1034.7,-771.99,-485.47,-417.55,-650.19,-1145.5,-1574.5,-1783.7,-1915.7,-1861.7,-1253,-845.82,-491.78,-306.46,-650.67,-1169.6,-1712.7,-2210.4,-1769.3,-782.23,-7.6021,328.92,168.66,78.266,346.26,285.03,-70.413,-718.44,-957.56,-785.18,-1216.4,-1360,-1150.3,-713.73,364.76,958.04,484.7,-550.34,-1753.2,-2717.5,-3685.8,-4128,-2813.7,-1355.5,-817.86,-553.33,519.27,1738.4,2505.7,2731.1,1219.8,-1304.4,-2627.4,-2829.4,-2463.6,-977.97,167.14,-875.22,-2472.2,-3354.7,-4653.4,-7265.9,-10589,-11619,-8028.9,-3738,-1253.9,-110.24,1121.8,1082.9,-1080.6,-1941.6,-1070.3,-1141.1,-2676,-3751.8,-3434.9,-1912.6,-578.06,-285.92,-547.63,-2340.1,-4873.8,-6388.3,-5564.7,-3594.1,-1038.3,2609.2,4798.4,4089.8,2151.6,-167.42,-2887.8,-5078,-5822.8,-5578.4,-5684.5,-6159.1,-3727.5,-1081.9,-1500.1,-2468.6,-4720.1,-5877.5,-5218.2,-6577.4,-9292.7,-8796.1,-4302.5,-637.62,1865.5,5012.3,9393.9,10499,5757,1781.6,3622.2,6578.8,6484.4,4416.2,2172.4,1130.6,1419.9,1674,2777.7,2991.7,1124.4,-870.7,-1246.1,-1453.1,-2150.6,-1433.5,135.97,1089.2,402.23,-528.31,-294.22,-699.6,-1803.5,-2625.9,-2434.3,115.91,3419.3,3697.8,2558.4,449.04,-6638.2,-13116,-12763,-9407.1,-6935.4,-4042.3,1118.6,5453,4796.6,1104.2,-1777,-2760.4,-843.31,465.45,-581,-2012.5,961.02,3870.7,1336,-1962.4,-3283.7,-4238.7,-5403.8,-5546.7,-4660.3,-4525.2,-3039.8,-604.81,1480.3,3009.6,4026.5,3103.2,899.13,-519.32,-405.71,-1080.1,-2457.3,-4175.3,-6771.1,-7825.2,-6631.6,-4324,-880.56,1418.2,935.12,-1375.6,-4193.4,-5673.2,-3748.3,413.55,2915.7,3417.7,4407.2,5028.2,2831.7,772.96,-205.62,-885.62,-2218,-3164.2,-2444.9,-1922.4,-2534.4,-2393,-2328,-2965.6,-3243.1,-2357.3,-995.77,-1146.2,-3463.5,-6009.2,-7381.7,-8361.6,-7784.9,-4945,322.45,3549,998.27,-2040.1,-2511.1,-3621.9,-5920.3,-5762.4,-4004.5,-2667.2,-485.37,2029,3592.5,4603.2,3816.5,1684.5,443.45,1631.8,2727.3,596.91,-2334.4,-1710,731.69,1964.9,677.94,-1217.5,-2951.5,-3062.6,-1179.3,-1992.3,-5727.6,-10017,-8982.1,-5368.9,-3957.1,-4026.3,-4297.8,-1859.1,1698.6,3007.9,1441.4,1547.7,3310.9,2597.7,191.13,-2161.4,-3586.4,-2699.9,-927.58,-1315.4,-968.14,-272.66,-498.85,-457.11,-2847.2,-5557.5,-6570.6,-6962.1,-6795.5,-4594.5,-918.52,181.31,-520.97,1485.2,4050.2,4802.6,1759.9,-1733.3,-386.28,1004.9,717.19,-1713.3,-2229.7,159.61,2729,3838.6,4459.7,3722.9,312.71,-2371.1,-2176,27.731,668.18,258.35,1772.3,3352.7,3893.1,1047.3,-5074.8,-7353,-5855.3,-5153.5,-4913.4,-2783.3,-741.24,-221.31,-166.06,-318.62,-983.48,-2063.4,-1687.4,1017.5,2645.2,417.5,-1217.3,-694.25,-1079.8,-2710.8,-3937.2,-4102.2,-3599.3,-2490.7,-1682.7,-914.23,-161.29,298.78,-1142.6,-3054.7,-2938,-2717.1,-3182.3,-3788.3,-2719,-2494.5,-5398.5,-6699.7,-4405.1,-718.97,1588.7,1526.8,1147.7,1926.5,1266.3,-2927,-7385.1,-9802.8,-10244,-7897.7,-2831.3,1130.1,3075.4,4305.1,4662.9,2706,-239.14,-745.99,-302.26,-1201.5,-2221.3,-2568.6,-1171.3,805.67,1841.7,1739.8,1616.2,1142.6,-362.64,-1587.7,-1393.5,-40.758,-833.72,-4031.4,-4743.5,-2231.3,886.03,1947.2,1696.3,339.47,-1447.7,-2997.4,-4172.3,-3312.8,-1683,-855.3,-1480.3,-1338.2,-1081.6,-1256.7,-473.87,-60.236,1268.6,1507.3,-786.72,-3082.2,-3653.2,-4154,-4337.5,-3385.7,-1674.2,501.17,892.91,84.132,617.5,-125.16,-1135.9,-1659.7,-2540.4,-3831.6,-4289.1,-4276.6,-4879.3,-4616.3,-2863.1,-1319.2,-1242.7,-527.24,911.57,1593,1486.3,457.87,185.47,968.32,992.25,-198.29,-1298.4,-2077.7,-3646.8,-5016.3,-4337.9,-2009.9,335.07,1820,2165.7,1026.7,-2900.8,-4764.2,-4207.1,-4019.4,-4325.4,-2903.8,-2005.4,-1318.1,-350.3,-33.233,583.05,1853,1870.1,366.63,-489.76,-42.037,-299.95,-798.34,-1048.6,-975.25,-1109.8,-935.67,512.42,690.37,-502.11,-1968.9,-3793.9,-4253.5,-3483,-1950.3,807.04,1789.1,-27.196,-2713.7,-4136.7,-4084.3,-3009.4,-910.88,197.01,531.35,-561.47,-2249,-653.52,1505.3,1118.4,871.21,1707.9,740.39,-2328.1,-4727.9,-4794.9,-3566.9,-2506.3,-2092.3,-2382.4,-3456.4,-3428.8,-2291.5,-2968.7,-3793.1,-994.33,620.27,-339.54,-1125.1,-674.79,101.61,-5.7547,-312.49,-1630.9,-4406.1,-6477.5,-4953.7,-609.92,442.83,-890.87,-1545.1,-1731.7,-2132.6,-3401.7,-3974.6,-3580.5,-3031.6,-2413.7,-853.57,1229.6,1666.1,474.72,-1213.9,-3230.7,-3969.2,-2017.4,2256.2,4291,2693.9,-91.272,-1163.9,-1330,-1876.2,-1820.8,-1201.9,-324.8,-465.38,-728.28,531.77,320.27,-1640.5,-2368.3,-1794.1,-694.67,322.84,216.22,-565.45,-1168.4,-1225.5,-622.47,-122,644.97,1535.1,2285.8,818.31,-1995.2,-773.75,379.65,-744.66,-2026.3,-2833.5,-3431.8,-2834.9,-1255.2,-259.85,-78.956,83.515,-1585.5,-2273.9,-1823.6,-2841.8,-3765,-2445.3,-1616.1,-2579.4,-4759.6,-5306.4,-3353.9,-1069.8,-488.31,-947.48,-1305.1,-981.58,181.42,961.56,738.65,-472.67,-1919.8,-4002.5,-5762.7,-6442.1,-5936.6,-4231.8,-1469.4,2878.2,5717.1,4766.6,2696.6,430.98,-1405.3,-1861.8,-1435.3,-1949.4,-1968.2,-610.87,1216.4,1185.4,276,-869.19,-1198.3,-1299.1,-3086.9,-4935.4,-4969.9,-2619.9,-1446.5,-2159.9,-3450.5,-4374.4,-5019.5,-4893.2,-3282.9,-1107.8,1420,2551.2,2394,2125.2,1117.9,983.51,1020,33.343,-1394,-2098.2,-1926.7,-1265.2,-1031,-1880.7,-2408.4,-896.41,396.42,1199.8,1386.4,843.96,-412.51,-1396.4,-1892.7,-1415.5,-1439,-1463,-1585.7,-1580.4,-1535.7,-1555.4,-1527.3,-1562.3,-1693.5,-1829.8,-1791.1,-1696.9,-1640.1,-1609.3,-1638.4,-1496,-1450.6,-1676.3,-1772.8,-1712.1,-1747.5,-1831.3,-1956.3,-1873.9,-1637.6,-1459.3,-1238.3,-982.83,-840.93,-832.67,-861.92,-1099.9,-1185.7,-1091.6,-1214.2,-1471.3,-1542.9,-1510.1,-1473.1,-1375,-1459.5,-1694,-1844,-1840,-1657.8,-1526.8,-1454.9,-1393.4,-1539.8,-1558.6,-1470.7,-1332.3,-1430,-1553.2,-1636.4,-1692.9,-1677.9,-1720.5,-1650.9,-1469.6,-1351.5,-1232.7,-956.04,-816.86,-669.01,-584.53,-734.47,-844.08,-906.48,-1005.5,-1084.4,-1289.5,-1501.5,-1465.9,-1468.8,-1458.7,-1174.2,-1000.9,-774.4,-547.97,-653.38,-757.48,-739.9,-913.59,-953.64,-933.88,-972.24,-1169.1,-1183,-1194.3,-1254.8,-1287.9,-1387.3,-1417.9,-1400.4,-1217.6,-1138.7,-1074.4,-1108.4,-1255.1,-1376.6,-1406.1,-1372.4,-1487.4,-1370.9,-1396.8,-1530.5,-1709.1,-1587.7,-1230.6,-1025.8,-981.35,-810.48,-652.13,-775.56,-1134.1,-1092.5,-935.71,-827.91,-1006.1,-1212.9,-1355.3,-1356.1,-1524.1,-1722.6,-1708.5,-1569.3,-1389.1,-1293.9,-1229.5,-1170.7,-1216,-1244.8,-1272,-1300.8,-1362.3,-1241,-1252.5,-1573.8,-1797.8,-1810.4,-1870.2,-1665.2,-1396,-1266.4,-1072.3,-795.46,-705.43,-738.8,-969.68,-1066.7,-1129.5,-910.27,-933.95,-1164.3,-1341.5,-1475.9,-1636.8,-1568.5,-1539,-1183.7,-1069.7,-1047.6,-898.53,-806.53,-1008.3,-1423.4,-1574.8,-1423.2,-1080.8,-1172.9,-1191.5,-1195.2,-1170.9,-1139,-1256.7,-1354.5,-1319.2,-1178.6,-959.94,-856.09,-951.5,-1077.7,-1204.4,-1161.5,-1134.2,-1069.7,-1061.5,-1310.5,-1391.9,-1512.1,-1585.5,-1601.2,-1650.2,-1605.6,-1398.6,-1130.4,-1125.2,-1152.8,-1237.8,-1178.9,-1111.5,-1167.7,-1188.9,-1262.7,-1400.2,-1422.2,-1526,-1609.9,-1590.4,-1643.5,-1646.9,-1623.2,-1462.8,-1322.4,-1275.4,-1259.8,-1129.9,-1075.6,-977.86,-1029.7,-1090.5,-1236.6,-1440.2,-1420.6,-1396.7,-1369.7,-1325.1,-1449.8,-1469.5,-1339.9,-1157.7,-950.97,-1019.8,-1242.6,-1322.2,-1097,-1063.8,-1237.8,-1256.4,-1365.1,-1404.9,-1282.4,-1378.4,-1662.3,-1806.5,-1763.7,-1655.6,-1572.7,-1513.2,-1404.7,-1183.7,-1176.8,-1431,-1517.7,-1503.7,-1473.4,-1564.7,-1646.7,-1666.1,-1700.3,-1643,-1669,-1666.7,-1543.9,-1520.7,-1649.5,-1797.9,-1649.1,-1429,-1101.9,-1136.5,-1495.9,-1822.5,-1814.5,-1531.3,-1358.7,-1512.6,-1777.1,-1843.3,-1839.8,-1659.6,-1243.9,-1166.5,-1258.6,-1351.5,-1254,-1201.4,-1158.1,-1171.5,-1134.7,-1147.3,-1039.9,-1040.4,-1247.7,-1434.8,-1714.6,-2066.4,-1833.1,-1312.2,-1107,-972.85,-642.33,-569.88,-860.46,-1161.5,-1076.1,-952.03,-1015.3,-644.56,-464.95,-636.12,-676.42,-981,-1927.6,-2174.2,-1255.2,-506.47,-701.84,-724.27,-688.37,-546.78,-653.35,-575.37,-420.24,-710.37,-1103.6,-1470.8,-1750,-1469.9,-1136,-1086.8,-1344.9,-1394.7,-1245,-1144.3,-1315.1,-1248,-1072.4,-975.07,-554.34,-171.34,-458.96,-819.94,-1113.3,-1134,-1311.7,-1483.2,-1224.5,-1035.1,-1123.2,-1243.2,-1234.2,-1174.4,-1064.3,-916.8,-800,-945.43,-872.83,-750.93,-953.68,-1325,-1650.4,-1746.7,-1634.3,-1687.7,-1794.6,-1987.9,-1867.2,-1769.7,-1547.3,-1353,-1152.6,-893.15,-787.04,-823.63,-1040.5,-1317.4,-1662.7,-1938.8,-1849.4,-1689.9,-1585.9,-1455,-1458.2,-1391.9,-1240.9,-951.7,-717.58,-804.33,-824.96,-631.46,-389.73,-683.68,-1391.8,-1891.5,-2065.1,-2069.8,-1780.3,-1433,-1261.7,-1131.4,-1073.2,-1216.3,-1041.8,-773.35,-880.73,-994.16,-991.41,-1094.7,-1084.5,-1037,-1568.7,-2134.8,-2284.1,-2022.4,-1366,-1418.8,-1696.1,-2005.8,-2044.6,-1460.6,-681.33,-553.31,-1180.5,-1680.6,-1471.4,-1084.7,-880.04,-1369.5,-1512.4,-1477.1,-1335.7,-1256.8,-1305,-1812,-1986.4,-1689.3,-1319.9,-717.48,-674.12,-1023.5,-1193.1,-1328.3,-1602.9,-1775.7,-1689.9,-1623.8,-2131.6,-2486.4,-2032.1,-1573.5,-1628.7,-1734,-1680.3,-1342,-908.62,-622.45,-734.44,-824.47,-634.32,-560.9,-638.38,-1360.4,-1730.6,-1820.4,-1490,-1247,-1247.1,-1374.7,-1435.8,-1337.5,-1047,-778.38,-687.22,-647.54,-753.06,-1010.2,-1236,-1330.1,-1442.4,-1409.9,-1319.8,-1528.2,-1784,-1865.2,-1874.3,-1724.7,-1777.6,-1605.8,-1245.2,-1235.5,-1588.1,-1969.7,-1799.8,-1538.9,-1290.1,-1012.5,-1071.7,-1523,-1872.9,-2053.5,-2004.8,-1899.1,-1753.2,-830.36,-917.2,-1597.8,-2015.7,-1805.7,-1574.9,-1517.8,-1380.2,-1163.9,-837.38,-1216.5,-1539.7,-1215.3,-997.27,-1523.2,-2044.5,-2100.4,-1949,-1441.8,-1029.5,-923.77,-1178.9,-1356.2,-1234.9,-935.48,-705.34,-620.57,-1013.6,-1398.2,-1530.3,-1724.6,-1564,-1194.2,-1257.6,-1656.6,-1766.3,-1309.9,-677.52,-446.21,-322.73,-670.49,-1139.7,-1211.6,-866.6,-183.37,-458.78,-1122.5,-1139,-438.77,-530.58,-919.41,-1009.4,-1182,-1179.5,-1079.6,-943.76,-505.78,45.849,103.82,-74.215,-90.69,-401.5,-698.03,-724.73,-472.84,-877.36,-1534.9,-1689.8,-1308.3,-1181.2,-1338.2,-1167.4,-553.43,6.2631,236.43,277.26,108.05,102.47,-173.79,-1161.2,-1441.5,-1016.8,-1048.3,-1919,-2290.1,-2323.2,-2028.4,-1791.4,-1822.1,-1332.9,-785.33,-212.89,-29.46,-532.42,-1100.8,-1375.1,-1669.5,-1722,-1795.4,-2046.1,-2692.2,-2870.3,-2756.8,-2451.7,-2145.8,-2196.5,-2085.9,-1493.8,-783.14,-568.02,-929.92,-1563,-1616.1,-1565.4,-1705.7,-1972.9,-2440.5,-2493.7,-2297.3,-2469.2,-2948.9,-2981.5,-2276.5,-1382.6,-755.88,-535.21,-819.08,-1160.4,-1634.6,-1795.4,-1584.7,-1528.8,-1833.8,-1910,-1957.9,-2158.6,-2719.6,-2851,-2110,-1322.2,-758.57,-30.834,363.32,319.14,-494.97,-1267.1,-1332.8,-684.05,-653.4,-1279.1,-2121.8,-2729,-2639.6,-2067.4,-2123.9,-2230.8,-1264.6,-105.41,552.82,1015.6,1082.5,254.16,-627.58,-611.27,-382.72,-686.33,-1400.1,-2270.1,-2554.4,-2445.4,-2190.1,-2071,-1594.5,-565.64,386.78,584.4,156.48,-429.48,-715.25,-1050.2,-1195.2,-850.37,-561.82,-1277.5,-2342.9,-2500.7,-1978.7,-1571.3,-1209.4,-552.02,478.83,807.76,-670.66,-2956.7,-3298.4,-1767.6,71.466,764.92,780.25,290.64,-1321.1,-3341.5,-4319.3,-4477.3,-4080.4,-2563.1,-1344.9,-858.75,-642.49,-393.74,195.28,936.02,1307.4,1438.1,1180,416,-389.39,-295.3,-712.05,-1405.1,-1833.5,-1388.5,-1327.2,-3814.1,-6815.8,-7128.6,-4191.9,-344.69,1466,2105.6,1019.4,-2080,-5600.6,-5386.3,-2298.2,624.52,1355.9,-2.7839,-1527.9,-1949,-1809.7,-1721.9,-1676,-296.43,3080.9,6932.5,7779.5,5463.7,2485.2,-1342.6,-5732.1,-7971.9,-7305.7,-4841.6,-2953.8,-2025.6,-1216.2,223.89,4561,7561,5847,1706,-5516.2,-15255,-17829,-9794.3,-1742.2,931.8,0.38471,-1028.7,891.7,4662.7,265.71,-9306.2,-17121,-28463,-39700,-40245,-31094,-18770,-8075.3,-763.92,8213.6,15565,17434,16127,14583,10434,4262.5,373.86,1294.8,4146.3,6853.2,8648.7,8529.5,7082.2,5930.2,5069.2,4388.1,4471.8,3738.4,828.16,-2173.6,-3960.8,-5617,-6865.2,-5483.1,-2558.3,3553.5,9144.7,9032.1,6028.8,2914,-168.04,-2265.8,-3566.4,-5227.1,-5722.6,-3289.8,66.255,1330.4,13.428,1194.4,4215.3,4105.3,2580.6,664.14,-344.14,-320.83,726.68,3255,5815.2,6006.2,4621.9,3658.4,2891,2176.7,586.44,-905.61,-1364,-1801.1,-1042.8,142.6,604.48,1010.4,1292.7,202.78,-1680.2,-4419,-7032.9,-8169,-6496.5,-2316.9,1428.3,3274.7,5696.3,3406.6,-3477.2,-8016.3,-7690.2,-3087.6,554.22,192.96,-2382.4,-3217.3,-1923.4,926.24,2217.6,1308.8,-851.18,-2247,-3209.6,-4570.9,-5225,-4822.3,-3896.4,-3361.4,-4581,-5545.8,-5880.3,-5951.2,-5281.9,-4759.6,-4157.3,-2165.9,37.043,730.78,-498.21,-1544.9,-1680.6,-1475.9,-758.91,-1584.4,-3310.9,-3170,-2462.2,-3406,-4512,-5457.5,-6652.6,-7186,-7748.9,-8570.8,-9267.1,-9693.1,-9248.9,-7262.2,-4220.4,-2308.8,-1697.4,-979.01,-621.71,-811.27,-69.521,420.89,-1272.7,-3942.2,-6290.8,-6799.3,-5547.8,-4272.6,-3140.6,-1385.6,194.78,802.74,-134.07,-2139.2,-4194.3,-4328.9,-4428.7,-4591.1,-4407.6,-4873.5,-5256.3,-4465.3,-3827.1,-5177,-6047.6,-4712.4,-1761.2,554.83,3245.3,5626.9,4857.6,3071.5,1817.3,610.24,-1272.4,-2651,-3041.1,-2969.4,-2560.1,-1195.1,424.28,1516.2,2777.6,3962.6,3664.2,1737.5,1010.5,1324.9,2415.8,3596.3,3583.7,3475.1,3825.6,3846.8,3115.5,1648.9,-197.75,-224.89,235.13,640.08,891.91,832.75,9.0794,-1249.4,-2015.4,-2119.6,-1062.4,2109.9,3955.3,3921.4,2258.9,33.079,-278.46,1074.2,1899.7,2733.2,2982.3,3276.8,3481.4,3040,1942.5,581.39,32.564,39.878,412.66,874.82,676.28,-421.85,-2071.9,-2956.4,-2607.9,-1681.7,-473.99,934.83,878.13,-142.09,279.97,486.3,-929.72,-2590.1,-4493.1,-5760.9,-5728.2,-4310.3,-1332.5,1410.4,3312.2,3262,1993.1,886.39,-389.88,-1611.9,-2372.1,-2198.5,-650.94,980.84,1239.7,-396.23,-1696.7,-2817,-3480.2,-2383.6,-1155.2,-861.9,-512.22,-572.97,-1352.6,-1886.1,-1984.6,-2388.1,-3136.6,-3384.7,-3961.1,-3213.3,-751.53,996.97,1252.8,-1216.2,-3231.7,-4449.7,-5109.9,-3925.4,-2459,-3492.7,-2704.6,358.86,731.92,-1046.9,-2707.4,-4017,-5147.7,-5261,-3309.9,-1170.5,-832.85,-1730,-3147.6,-3930,-3211.5,-2315.7,-1594.3,-1095.8,-1055.6,-1544,-1580.8,-1458.3,-1338.1,-2074.9,-3577.7,-4070.5,-3535.3,-3052.7,-2663.3,-1817.1,-1651.3,-2876.5,-5428.9,-7754.5,-8872,-8345.5,-6774.1,-4662.2,252.15,2694.5,2040.5,845.33,-658.06,-3067.6,-4441,-3485,-2923.6,-4001.7,-5524.3,-5640.2,-5350.4,-4980.8,-4425.4,-4356.7,-5976.3,-5671.7,-3263.6,-2115.7,-987.56,738.57,2441.6,2759.6,1016.1,-1792.6,-3368.2,-3896,-3867,-3767.1,-2513.2,-973.67,214.74,836.09,-78.193,-905.21,-1102.2,-1316,-2290.4,-3655.1,-4702.2,-5525.5,-5219.9,-3769.3,-1608.3,1499.3,3764.9,2658.1,1751.4,2433,1452.3,-619.14,-1992.1,-2894.2,-2641.3,-628.77,1053.6,1036.9,-95.277,40.809,1524.6,2788.7,1454.3,548.98,1075.1,1782.2,231.9,-2416.7,-2870.7,-1869.9,-1093.4,-272.48,27.16,489.95,649.7,464.29,-293.45,-744.35,270.3,1938.8,2115.8,1000.5,833.95,354.43,315.18,235.18,635.15,1503.6,1225.7,288.33,-353.77,-362.8,529.81,894.79,396.48,-1225.2,-2623,-2658.6,-2342.4,-1322.8,69.314,408.21,844.16,1244.3,1370.8,1302.5,1511.6,1554.5,1192,115.67,-563.84,-823.19,-831.37,-1384.9,-3490.4,-4659.4,-2572.9,476.11,973.73,1647.1,2564.7,2014.3,1618.5,1649.2,1902.4,1843.3,451.37,-1244.3,-3068.6,-4631.4,-4109.3,-2715.3,-889.91,804.12,190.87,-2886.3,-3839.9,-3126.2,-2794.7,-859.11,2303.4,2951.8,2051.5,979.94,-607.46,-570.23,350.3,816.6,152.76,-913.89,-1298.4,-1278.5,-677.31,154.1,306.76,-448.55,-1120,-514.74,571.83,168.88,-1748,-2148.8,-2823.1,-3359.4,-3302,-2783.1,-2257.8,-2318,-2902.2,-3449.7,-3271.4,-3035.5,-3348.9,-3965.8,-3295.2,-1216.1,-176.97,-531.24,-1256.8,-1961.5,-1917.3,-1915.3,-2099.6,-2958.9,-4324,-4596.9,-4547.2,-4494.8,-3938.8,-3733.2,-4023,-3571.3,-3637.3,-4179.7,-3812.2,-3815.6,-4672.6,-4484.2,-3251.4,-2671,-2584.3,-1639.8,-932.8,-848.75,-972.68,-2790.9,-4165.6,-3888,-3687.3,-4271.8,-4799.3,-4014.5,-2662.7,-2136.5,-1788.7,-2438,-3056.9,-2810.8,-2538,-1507,-590.18,-1415.7,-2146,-2214.5,-2828.9,-2553.5,-2202.9,-2530.3,-2816.4,-2015.5,-706.45,-1056.5,-1505.7,-1929.2,-2443.1,-3143.2,-4587.6,-5447.2,-5077.3,-4240.9,-3838,-4260.1,-3156,-445.45,1000.7,459.27,-766.45,-1341.8,-1265.9,-1339.8,-1822.2,-1656.6,-980.28,-1084.3,-1141.9,-693.2,-249.6,-9.2674,-505.34,-818.22,-713.93,-1194.8,-1219.4,-227.85,-874.77,-2096.6,-2270.6,-2180,-1348.6,400.72,1159.6,996.63,-675.15,-3148.4,-3331.1,-2714.6,-1303.1,-197.06,657.35,1221.5,193.88,-1177.8,-1799.1,-1641.8,-1052.5,-153.67,92.894,57.579,65.096,894.97,1950.1,1141.6,-74.894,-809.86,-1172.4,-1581.6,-1529.6,-959,-628.97,-1399.7,-1294.4,-1228.8,-1212.3,-1131.8,-1158.5,-1236.6,-1216.2,-1142.9,-1292.3,-1488.4,-1414.7,-819.93,-374.39,-704.07,-1587.3,-1799,-1219.1,-601.71,-1319.3,-1940,-1673.9,-1103.3,-925.4,-1322.7,-1612.2,-1530.1,-1409.5,-1500,-1697.9,-1584.4,-1454.6,-1170.2,-1043.8,-1065.2,-1053.8,-904.62,-911.69,-1160.9,-1368.2,-1380.2,-1283.2,-1359.7,-1500.1,-1611.3,-1699.2,-1538.3,-1307.9,-1140.3,-1026.8,-1159.9,-1284.2,-1456.6,-1135.8,-936.33,-1051.9,-1063.5,-748.08,-690.04,-1148.1,-1602.9,-1530.4,-1187,-1500.5,-1824.5,-1317.1,-943.11,-1111,-1086.1,-1128.1,-1250.7,-1342.8,-1065.7,-797.08,-680.55,-572.33,-832.16,-1376.6,-1193.7,-776.11,-1002.6,-1408.7,-1330.7,-715.57,-483.83,-1288.4,-1484,-1270.9,-1208.1,-1095.6,-1198.1,-1277.5,-1117.4,-1114.4,-1020.8,-864.59,-849.65,-1072.7,-1252.3,-753.09,-451.14,-1206.8,-1680.9,-1232.4,-1190.8,-1349.9,-1460.2,-1552.7,-1396.1,-1358.7,-1704.3,-1984.5,-1599.1,-1271.3,-1596.5,-2005.7,-1746.9,-1289.2,-1345,-1628.2,-1692.2,-1791.3,-1750.4,-1620.1,-1616.1,-1376.4,-1345.5,-1661,-2022.5,-1864,-1406.4,-1306.8,-1626.5,-2016.7,-2181,-2086.1,-1970.2,-1824.7,-1815.6,-1749.5,-1487.3,-1085.5,-806.62,-667.98,-851.12,-1081.2,-1374.7,-1555,-1175.6,-1129.5,-1640.2,-1629.5,-1462.2,-1235.6,-641.82,-350.12,-421.36,-843.22,-1094.1,-805.87,-969.75,-1151.7,-1122.8,-1103.2,-1218.8,-1269.5,-918.72,-888.42,-1186.2,-1536.3,-1897.6,-1834.9,-1315.8,-1205.5,-1178.3,-884.93,-948.88,-1306.1,-1539.1,-1248.6,-721.9,-532.88,-959.28,-1469.6,-1447.4,-1138.9,-912.4,-1067.3,-1599.4,-1936.7,-1606.7,-1182,-1167.1,-1323.8,-1395,-1255.2,-1195.1,-1199.6,-1184.2,-1288.6,-1194.6,-1280.5,-1599.5,-1642.8,-1289.7,-593.24,-823.52,-1446.5,-1706,-1553,-1451.8,-1610.8,-1545.2,-930.95,-995.87,-1474.8,-1889.3,-1921.4,-1726.8,-1654.9,-1868.7,-2121.9,-1914.1,-1493.8,-1606,-1598.6,-1448.4,-515.24,230.94,-662.39,-1456.2,-1507.3,-1241.5,-948.66,-1232.3,-1508.3,-1762.7,-1774.3,-1703.1,-1419.6,-970.4,-771.43,-822.19,-812.58,-915.68,-922.17,-781.6,-792.55,-895.72,-781.99,-669.01,-1036.3,-1139.4,-687.3,-501.89,-875.7,-1240.3,-1287.9,-936.15,-467,-640.17,-882.68,-797.6,-746.5,-726.75,-743.41,-931.21,-1292.2,-1438,-1555.5,-1393.4,-1266.5,-1278.6,-1147.4,-981.45,-929.5,-777.01,-1320.9,-1671.2,-1467,-1398.1,-1404.2,-1418.8,-1489.5,-1439,-1590.5,-1822.8,-1742.5,-1720.1,-1740.1,-1556.9,-1582.3,-1580.9,-1473.5,-1376.1,-1182.7,-1200.7,-1320.4,-1223.4,-1524.7,-1845.8,-1963.2,-1752.4,-1439.5,-1109.5,-585.61,-402.07,-1116.6,-2043.7,-2306.6,-2083.2,-1698.6,-1406.5,-1344.3,-1321.7,-1443.3,-1563,-1545.4,-1534,-1266.7,-982.13,-1413.6,-1802.7,-1786.4,-1764.1,-1598.9,-1353.2,-1295,-1284.5,-1136.3,-1047,-1344.7,-1458.5,-1399.4,-1203.3,-860.19,-1455.3,-1532.4,-1206.9,-1198.5,-1324.6,-1440.9,-1287.2,-897.62,-805.14,-931.25,-1002.7,-1028.3,-1355.9,-1789.5,-1723.4,-1202,-1396,-1924.3,-1980.5,-1659.3,-1723.2,-1867.8,-2103.6,-1877.4,-1685.4,-1703.6,-1687.6,-1571.5,-1317,-1280.7,-1422.8,-1311.3,-1050.7,-996.16,-1237.7,-1272.2,-1371.3,-1692.3,-1816.7,-1214.7,-740.83,-1108.2,-1231.2,-857.04,-1060.1,-1238.5,-1003.1,-907.05,-1166.1,-1301,-1114.7,-1000.5,-1062,-1034.9,-1022.7,-1001.9,-909.48,-833.53,-880.61,-986.99,-983.18,-777.07,-928,-1422.4,-1406.2,-792.12,-351.6,-96.129,-177.66,-963.43,-1461,-1283.1,-1130.6,-1065.6,-1000.9,-919.83,-1129.1,-1388.3,-1255.2,-1039.9,-888.09,-760.4,-259.63,-82.328,-820.11,-1249.6,-1275.2,-1183.4,-1120.3,-1480,-1752.3,-1655.4,-1536,-1322.7,-1158.1,-799,-483.84,-431.3,-512.67,-753.8,-965.93,-1056.3,-1035.1,-1016.2,-1043.6,-1041.9,-1081.1,-1282.8,-1605.3,-1819.7,-1956.9,-1878.2,-1441.4,-953.16,-1174.6,-1156.1,-1026.8,-998.38,-999.98,-1089.7,-1086.8,-1684.1,-2168.8,-1792.7,-1698.1,-1747,-1418.4,-1474.4,-1489.2,-1562.1,-1596.2,-1198.6,-810.07,-737.64,-1050.3,-1233.5,-813.55,-1087.8,-1846.6,-2095.1,-1919.8,-1746.3,-1648.8,-1657.1,-1846.5,-2086.9,-2004.1,-1834.3,-1584.9,-1380.9,-1360.1,-1448.7,-1509,-1343.8,-1353.1,-1587.6,-1746.2,-1837.2,-1862.7,-1684.4,-1714.4,-2012.1,-2116.3,-1987.2,-1935.1,-1774.4,-1442.7,-1297.8,-1370,-1608.9,-1805.7,-1404.7,-1172.2,-1569.7,-2041.2,-1933,-1808.6,-1699.6,-1370.8,-1396.9,-1439.4,-1559.4,-1590.1,-1324.6,-1099.2,-1036.7,-932,-671.71,-848.36,-1336,-1299.1,-886.81,-868.69,-1273.3,-1737.6,-1625.5,-1279.6,-1160,-1174.1,-1277.4,-1121.1,-1055.9,-1267.7,-1249.8,-1055.9,-1086.2,-979.71,-1190.5,-1738.5,-1816.7,-1719.7,-1794.7,-1523.4,-1107.4,-931.07,-1142.8,-1323.3,-1297.8,-1018.7,-806.41,-718.93,-795.91,-971.75,-1242.5,-1437.5,-1514.2,-1672.3,-1428.6,-1061.7,-936.96,-825.6,-771.62,-789.99,-795.5,-702.08,-963.28,-1174.5,-1197.4,-1122.4,-1071,-944.38,-917.75,-1119.8,-1055.9,-955.05,-1058.1,-1406.5,-1485.5,-1006.3,-652.9,-828.1,-1121.7,-1313.9,-1153.4,-861.77,-871.53,-914.35,-587.93,-618.42,-1212.8,-1510.4,-1029.7,-516.37,-563.96,-1081.5,-1636.5,-1568.3,-972.94,-402.34,-300.86,-504.97,-657.73,-684.39,-911.43,-1083,-1072.3,-1104.8,-1445.3,-1653,-1480.3,-1144.7,-1009.5,-1089,-1234.4,-1148.1,-815.75,-349.1,-427.97,-635.48,-739.29,-788.76,-770.98,-1125.3,-1480.9,-1541.8,-1581.8,-1492.6,-1423.6,-1616.9,-1835.6,-1773.5,-1814.6,-1654.2,-1501.5,-1438.8,-1485.6,-1405.4,-1473.6,-1637.4,-1706.8,-1661.9,-1479.3,-1408.3,-1788.2,-1985.8,-1932,-1789.9,-1877.2,-1817.7,-1570.1,-1296.4,-1174.1,-1267.6,-1304.2,-1360.4,-1561.1,-1645,-1630.8,-1628.9,-1554.4,-1472.3,-1451.7,-1495.5,-1593.9,-1708.9,-1613.6,-1575.9,-1420.5,-1099.8,-947.16,-988.87,-1252,-1278.5,-1230.5,-1269.6,-1448.6,-1613.3,-1561.2,-1403,-1417.6,-1585.1,-1584.2,-1054.1,-661.2,-418.8,-465.99,-521.96,-611.42,-664.21,-487.21,-391.76,-162.25,141.33,181.39,-409.37,-1065.8,-1025.9,-1363.2,-2471.9,-2870.5,-2026,-1302.8,-1667.5,-2406,-2743.5,-2594.1,-2236.1,-2394.2,-2619.4,-2111.2,-1428.7,-1509.4,-2060.5,-2584.5,-3255.3,-3950.5,-3731.9,-2783.9,-2104.2,-1659.5,-1268,-1103.9,-1288.4,-1551.1,-1834.7,-1912.6,-1585,-1650.8,-1729,-1075.2,-1276.4,-2444.4,-2880.1,-2439.8,-2074.7,-1939.1,-1671.3,-983.19,188.09,1144.5,1010.1,-184,-1836.7,-3510.8,-5264.2,-7167.4,-7528.7,-5837.2,-3542.1,-2347.6,-2308.5,-1124.7,76.199,698.85,1394.2,1030.3,122.7,-49.862,897.83,1184.7,337.75,-202.53,405.89,1617,2638.6,3219,3336.3,2740,2898.8,3634.2,4130.1,3713.3,2279.8,788.16,138.47,-775.09,-1517,-1497,-1081.1,-228.75,-57.99,-1163.2,-1678.9,-1189.1,-980.25,-1133.2,-1524.9,-1580.4,-1508.9,-1570.9,-1600,-1110.3,-793.98,-847.26,-523.47,-937.54,-2384,-4228.6,-4664.1,-4355.8,-4832.2,-4972.8,-3987,-2268.4,-1000.3,124.48,286.98,-473.23,-1035,-984.34,-446.75,198.34,779.51,555.78,-586.84,-3277.7,-6427.9,-7944.8,-8406.1,-8284.3,-7758.7,-6225.7,-4137.9,-1661.5,872.95,2137,2140.8,2140.7,1882,1897.5,2159.2,2576.3,3386,3774.9,2528.2,-715.34,-2976.9,-3278,-2778.5,-3075.6,-3101.4,-2335.6,-2245.4,-3213.8,-3483.7,-2173.6,99.946,413.17,444.38,1170.7,1612,1400.4,624.55,-45.607,33.294,512.65,635.53,-254.18,-1635.8,-2456.7,-1258.9,-23.462,-132.37,-797.65,-1792.8,-2356.5,-2257.5,-2726.6,-3835.7,-5132.4,-6640.5,-6805.3,-5158.9,-2868.7,101.13,1550.1,1218.7,758.83,172.66,-256.19,-1309.1,-2720.5,-3647.3,-3265,-1871.6,-606.74,-157.75,54.088,-171.44,-1016.8,-1472.6,-1657.2,-1790.1,-1775,-1503.2,-1775.2,-2320.9,-1716.9,-1827.3,-3213.3,-4042.7,-4101.6,-3355.4,-2470.7,-2518.7,-3378.5,-5112.2,-6297.3,-5502.9,-4473,-3157.1,-272.97,1102.3,383.86,198.73,688.07,-603.73,-4384.4,-5901.6,-5531.7,-5884,-5293.8,-2863.8,-21.073,1968.7,2966.8,1611.3,-543.54,-3893.4,-7842.9,-7798.2,-2507.8,1118.3,3097.8,5156.7,6577,6652.6,4847.2,-432.82,-5954.7,-5978.8,-5243.8,-6268.4,-7163.2,-4987,542.01,4706.7,5380.1,4862.5,3636.9,1690.7,1094.9,1540.8,365.94,-1403.1,933.5,2907.7,1768.7,577.64,1003.2,985.05,-540.1,-4168.5,-6555.7,-3773.8,-1095.1,-523.71,-2110.8,-2024.5,1317.7,3445.3,3877.7,3562.7,903.45,-1421.7,-1308.1,-514.37,-445.14,-245.15,-767.87,-1113.2,-94.658,1084.7,1774.4,2502.2,2156.5,695.41,-1.4417,226.05,-67.141,-335.1,-799.93,-1841.6,-2833.1,-3172.6,-3339.8,-2685.6,-1817.6,-1637.5,-1103.9,472.64,1202.6,209.54,-1849,-3501,-3239.1,-3354.9,-5852,-6788.4,-5289.1,-2572.9,-299,201.93,-2268.5,-3757.2,-3678.9,-3613,-3455.8,-3085.7,-3311.7,-4366,-6251.2,-7428.8,-6059.4,-3380.2,-2958.2,-2766.1,-787.71,1226.9,2341.7,1457.5,-75.645,-887.16,-1335,-1259.5,-820.09,142.11,1074.4,1492.8,1418.8,576.13,-1321.3,-3521.6,-4257.5,-4474,-4639.6,-3892.8,-2619.2,-1547.9,-2079.8,-1859,-1454,-1690.8,-1665.4,-1243.5,-1613.1,-1919.4,-1801.8,-880.46,-561.7,-1057.7,-1587.1,-2288.6,-2628.5,-2587,-2495.9,-2753.7,-2591.1,-864.29,842.5,627.14,-174.58,-131.14,589.56,200.4,-1185.8,-2197.1,-2694,-2219.2,-1217.7,-474.08,-247.88,-352.94,-208.59,-631.96,-1721.6,-1961.4,-528.48,177.37,-7.504,1101,1051.4,-1556.7,-1242.9,-225.72,-1097.5,-2769.7,-3586.4,-4109,-5387,-6226.2,-4748.4,-2074.5,412.44,2139.3,2391.6,1836.4,1653.7,1461.1,966.1,735.94,198.28,-824.63,-1316.9,-1075,-324.59,-548.24,-1934,-3444.8,-4123.8,-4463.9,-5394.6,-5962,-4828,-2381.4,-243.56,594.75,962.63,1879.3,2944.6,3361.3,2739.1,1424.3,-98.862,-188.71,-869.58,-2377.7,-2636.7,-1792.8,-1314.2,-1577.8,-1185.6,-508.13,-1130,-2105.5,-1160.6,732.16,-84.669,-679.17,-89.135,-748.87,-1974.5,-2512.5,-2396.3,-2073,-1395.9,-696.8,-829.5,-810.32,-408.64,334.58,-0.18862,-2108.3,-3173.3,-3084.7,-1984.9,-1314.9,-965.53,-450.4,-900.59,-1695.2,-1376.9,-826.03,-483.22,-581.08,-881.88,-870.4,-698.64,-795.05,-1429.9,-1726.1,-1958.5,-2077.9,-2840,-3343.6,-3016.7,-2593.5,-1843.9,-975.23,-456.59,-382.18,-478.69,-82.19,195.68,-870.45,-1990.1,-2282.9,-2410.8,-2594.6,-2475.7,-2198.2,-2023.3,-1090.6,267.84,29.578,-1110.6,-2003,-1846,-1198.9,-602.82,-29.701,-361.98,-1193.4,-2027,-3694.7,-5019.5,-3655.6,-576.32,205.1,-2252.2,-5082.8,-4667.2,-2486,-1516.4,-1480.3,-191.25,1077,889.8,16.206,-1193,-2610.4,-3201.9,-2208.7,-1384.9,-1661.9,-1751.1,-1169,-574.6,-487.51,19.411,516.08,705.97,-805.11,-1494.7,-1479.4,-1700.3,-1811.6,-1963.4,-2125.2,-3022,-3651.1,-3818.2,-3417.1,-1569.1,-77.433,176.39,68.697,-129.71,-455.43,-747.2,-518.43,-293.68,-846.46,-1253.5,-1595.8,-2021.8,-1408.8,-807.18,-343.03,188.24,550.27,-47.604,-840.11,-1263.1,-1645.7,-2240.1,-3168.5,-3451.6,-3218.3,-2456.6,-625.05,529.99,-406.58,-1392.9,-1143.5,-420.95,-846.88,-1131.3,-976.79,-702.08,-789.15,-678.57,-291.86,-1394.5,-3024.8,-3544.3,-3147.9,-2563.7,-1132.8,228.71,682.73,712.3,1008.7,1123.6,955.35,16.46,-1530.8,-2519.4,-3134.4,-4471.2,-4408.9,-2162,-603.19,340.4,1183.5,1209.7,29.945,-1024,-736.74,-78.978,-73.807,-726.71,-1796.9,-2235.5,-2232.8,-1924.5,-2158.9,-2306.2,-1265.6,-57.045,447.18,-170,-815.83,-1019.3,-1243.2,-1796.9,-2223.1,-2341.6,-2780.5,-2919.8,-2455.2,-724.86,61.726,-1032.5,-2757.8,-2794.7,-1906.1,-1193,-983.72,-1034.6,-679,200.67,1212.3,1807.5,1991.7,1997.5,629,-2575.7,-6173.2,-6136.8,-3847.9,-2946.2,-2398.6,-1787,-1039.3,-142.05,800.75,1064.2,493.51,-357.7,-818.53,-1428,-1717.8,-1476.3,-778.95,-367.42,-172.06,-136.42,-406.48,-890.12,-1084,-832.21,-729.02,-1781.8,-2796.3,-2764.6,-2816.6,-3911.9,-4844.4,-4090.9,-2509.2,-1084.9,-562.29,-841.61,-1392.6,-1302.4,-1100.2,-1214.8,-1189.9,-1136.8,-1290.8,-1128.2,-1171.2,-1315.1,-1425.3,-1414.5,-1273.8,-1317.2,-1246.2,-1409.4,-1463.6,-1430.1,-1044.3,-637.68,-1176.8,-1964.1,-1810.7,-1243.6,-1441.1,-1544.9,-1108.7,-966.26,-1150.5,-1173.5,-1166.1,-1148.7,-1233.2,-1567.6,-2012.8,-1967.3,-1789.6,-1634,-1376.3,-1322.3,-1605.8,-1631.8,-1437,-1387.4,-1387.8,-1433.9,-1671.9,-1527.3,-823.17,-364.21,-787.26,-1236,-1430.2,-1410.3,-1358.7,-1441.9,-1426.2,-1398.3,-1419.4,-1437.9,-1372.4,-1153.2,-1440.7,-1881,-2409.2,-2198.9,-1801.6,-1467,-1004,-1168.5,-1406,-1272.1,-1362,-1695.5,-2059.3,-1778.5,-1562.7,-1575.3,-1630,-1448.1,-1093.7,-1066.4,-1149.1,-1191.9,-1288.1,-1461,-1596.2,-1439,-1383,-1437.2,-1442.6,-1418.7,-1391.9,-1406.6,-1488.6,-1416.4,-1135.4,-1024.1,-1153,-1312.1,-1418.8,-1425.6,-1306.9,-1221.5,-1216.1,-1167.5,-1163.7,-1004,-1016,-1058.9,-1201.7,-1179.8,-892.24,-1080.2,-2112,-2596.2,-1442.4,-759.85,-1179.8,-1033.2,-536.22,-697.16,-1032.4,-946.89,-836.1,-726.28,-313.46,102.14,138.05,-624.45,-1238.2,-1281.1,-1131.1,-1239.7,-1263.4,-1204.8,-1077.8,-1020.1,-1241.7,-1214.6,-1109.5,-1192.3,-1237.3,-1239,-1322.2,-1405.2,-1336.1,-1256.9,-1441,-1533.8,-1554,-1534.9,-1600.1,-1500.3,-1300.4,-1336.2,-1353,-1280.6,-1294.4,-1236.2,-1239,-1217.2,-1093.7,-796.21,-785.41,-766.85,-671.06,-1187.5,-1514.3,-888.3,-1021,-1390,-1154.7,-544.87,-657.68,-1324.7,-1460.8,-1362.2,-1198.1,-1194.6,-1467.7,-1533.9,-1241.6,-1108.5,-1239.8,-1244.6,-1264.7,-1168.3,-1243.3,-1575.3,-1575.2,-1340.6,-1242.9,-1218.5,-1222.3,-1176.5,-1129,-1075,-1219.1,-1509.4,-1689,-1730.8,-1744.3,-1610.5,-1769.7,-1874.6,-1550.2,-1080.4,-932.51,-1223.1,-1613.1,-1651.8,-964.05,-1082.5,-2012.6,-2000.6,-1248.8,-1776.6,-2454.1,-1911,-1314.3,-1349.1,-1311.6,-1149.7,-1146.6,-1189,-1491.8,-1668.4,-1626.5,-1374,-1016.3,-931.67,-1097.2,-1220,-1251.1,-1290.5,-1376.6,-1338.8,-1058.6,-1007.2,-991.86,-872.28,-1115.9,-1597.5,-1728.6,-1629.6,-1470.2,-1424.9,-1505.8,-1639.1,-1628.6,-1616.4,-1566.8,-1513.3,-1408.1,-1388.1,-1370.1,-1440.7,-1528.4,-1370.2,-1295.4,-1213.5,-1016.9,-991.05,-1083.7,-1061.7,-1108.2,-1404.1,-1738.4,-1391.2,-1078.9,-1363,-1376.9,-1130.3,-1161.9,-1370.3,-1431.7,-1243.8,-1059.5,-1120.4,-1045.2,-1039.1,-1127.2,-1282.3,-1357.6,-1343.5,-1003.4,-898.37,-1350.8,-1617.4,-1676.6,-1603.8,-1288.1,-1048.5,-1159.5,-1302.3,-1219.8,-976.79,-880.32,-1295.8,-1695.3,-1645.6,-1034.3,-932,-1147.9,-1221.9,-1074.1,-970.87,-993.79,-1249.4,-1278.3,-987.26,-803.14,-1006.2,-1284.9,-933.65,-829.43,-892.43,-928.67,-1144.5,-1373.3,-1520,-1295.3,-1056,-1097.5,-1327.9,-1450,-1471.4,-1301.3,-1152.5,-1121.8,-1194.4,-1232.8,-1179.8,-1085.1,-1372.2,-1761.8,-1779.4,-1673.2,-1432.5,-1353.1,-1105.1,-746.21,-853.39,-1261.9,-1569.7,-1583.4,-1607.4,-1417,-1149.8,-897.99,-885.32,-993.84,-1422.5,-1647.1,-1504,-1361,-1445.6,-1437.4,-1428.2,-1301.2,-1194.3,-1225.8,-1144.4,-984.49,-1041.5,-972.7,-1064.6,-1137.7,-1101.2,-1230.8,-1329.6,-1353.6,-1379.8,-1466.4,-1465.4,-1370.4,-1506.8,-1422.5,-1282.3,-1361.4,-1409.4,-1382.9,-1303.3,-1258.3,-1191.7,-1344.7,-1238.5,-953.2,-1228.2,-1812.4,-1531.7,-543.42,-161.38,-633.96,-1349.8,-1414.5,-1463.8,-1154.9,-1145.8,-1342.3,-1303.1,-1369.1,-1352.4,-826.12,-525.86,-908.09,-1365,-1569,-1495.8,-1191.5,-1164.7,-1163.7,-1217,-1268.3,-1228.6,-1219.3,-1024.1,-980.46,-919.63,-1137.6,-1299.9,-1419.1,-1464.2,-1533.9,-1523.1,-1527,-1481,-1394.4,-1553.7,-1524.3,-1468.6,-1398,-1309.8,-1280.9,-1298.9,-1361.8,-1405.3,-1414.1,-1520.4,-1628.9,-1757.6,-1773.7,-1558.3,-1176.1,-1050.6,-1349.8,-1619.4,-1658.8,-1676.1,-1350.7,-1300.4,-1530.1,-1657.2,-1486.3,-1086.1,-1034.2,-1559.3,-1763,-1573.5,-1520,-1451.2,-1609.3,-1968.6,-1649.5,-1211.5,-1313.1,-1823.2,-1794.3,-1407,-1068.9,-1197,-1414.7,-1294.3,-1132.3,-1178.1,-1207.5,-1343.4,-1484.1,-1516.9,-1236.2,-952,-814.12,-983.79,-929.07,-726.63,-823.97,-1116.3,-1197.3,-1309.8,-1267.5,-1268.4,-1521.4,-1707.4,-1803.8,-1681.4,-1513,-1387.4,-1402.3,-1307.5,-1120.5,-987.3,-931.49,-987.04,-1186.6,-1483.7,-1164.4,-614.63,-793.5,-1091.8,-995.91,-992.43,-1316.9,-1308.6,-1158.4,-994.28,-937.65,-753.26,-468.86,-476.17,-822.51,-1390.8,-1498,-1141.6,-1038.1,-1099.4,-1312.7,-1380.6,-1496.4,-1628.2,-1784.1,-1851.8,-1751.6,-1747.1,-1581.3,-1233.2,-993.22,-1208.4,-1278.9,-743.96,-918.58,-1477.5,-1773.1,-1864.1,-1935.7,-1431.8,-1220.4,-1485.4,-1462,-1329.6,-1108.7,-1052.2,-638.63,-483.71,-1004,-1454.6,-1690.5,-1640.6,-1382.2,-1179.8,-1149.9,-1302.1,-1357.2,-1231.5,-1183.1,-1025.6,-882.83,-916.96,-1050,-1032.1,-1282.6,-1400.5,-1290.1,-1241.1,-1172.8,-1154.5,-1397.6,-1437.5,-1254.2,-1228.8,-1233.4,-1340.8,-1140,-877.18,-794.45,-768.89,-935.64,-1078.8,-1115.7,-1159.4,-1088.2,-1160.6,-1464.7,-1442.7,-1323.1,-1353.4,-1248.5,-1253.9,-1349.6,-1168.1,-1080,-1168,-1386.1,-1430.7,-1028.8,-540.76,-723.59,-1033.4,-1180.2,-1670.3,-1911.9,-1775.9,-1424.9,-1042.9,-740.22,-1211.4,-1838.8,-1880.8,-1591.1,-1442.4,-1646.9,-1708.8,-1361.8,-861.26,-750.79,-973.3,-1305.4,-1564.9,-1735,-1719.9,-1593.1,-1611,-1526.5,-1359.8,-1368.9,-1304.1,-1211.8,-1241.6,-1188,-1310.9,-1660.3,-1528,-1061.7,-853.97,-958.52,-1140.9,-1052.4,-847.37,-775.32,-822.85,-1404.8,-1936.6,-2045.2,-1713.2,-1157.8,-1002.2,-955.47,-1007.7,-1057.5,-1290.5,-1438.5,-1277.4,-1082.4,-820.98,-465.9,-647.13,-1199.1,-1282.4,-929.2,-889.29,-1256.5,-1469.5,-1486.6,-1616.7,-1600,-1405.5,-1170.3,-1213.3,-1402.7,-1468.8,-1521.2,-1643.4,-1658.4,-1747.3,-1725.9,-1761.8,-1765,-1817,-1936.4,-1853.7,-1626.8,-1596.3,-1268.7,-1131.2,-968.22,-545.03,-1148.4,-2074.9,-2158.9,-1731.3,-1899.2,-2212.4,-2161.5,-1860.5,-1247.9,-924.92,-1066.4,-1478.2,-1599.3,-1389.5,-1298.1,-1189.5,-1163.4,-1236,-1159.3,-1354.3,-1887.4,-1829,-1504.1,-1595.1,-1644.5,-1649.3,-1561.5,-1349,-1270.9,-1022,-723.23,-730.98,-962.38,-1151.7,-1337,-1384,-1588.6,-1836.5,-1787,-1346.8,-1285.4,-1375.4,-1166.5,-1096.8,-972.81,-839.75,-825.57,-926.46,-906.99,-743.64,-729.88,-852.1,-929.9,-1140.7,-1516.2,-1619.6,-1434.5,-1252.1,-1230.1,-1268.6,-1195.6,-1011.2,-793.89,-591.15,-351.26,-284.44,-511.17,-824.47,-773.4,-755.74,-1046.4,-1314.4,-1398.4,-1403,-1550.2,-1570.1,-1482.2,-1318.4,-1054.4,-961.67,-1145.4,-1059.3,-1075.4,-1455,-1756.2,-1724.7,-1553.3,-1349.7,-1480.8,-1749.1,-1759.5,-1645.8,-1262.9,-974.53,-920.3,-1011.1,-893.06,-497.61,-270.97,-517.49,-937.75,-1007.8,-1024.6,-1072.1,-1185.9,-1338.7,-1181.4,-1220.9,-1308.3,-1391,-1641.1,-1533.8,-1055,-793.45,-1051.3,-1161.7,-1228,-1446.1,-1632.7,-1073.1,-495.51,-846.92,-1448.4,-1598.1,-1454.1,-1195.8,-1255.4,-1369.8,-1308.5,-1360.7,-1176.6,-857.12,-469.11,-540.37,-970.33,-1191.9,-935.38,-936.22,-1099.3,-1108.8,-1141.1,-1133.1,-1072,-1076.6,-1194,-1139.3,-983.57,-1022.4,-808.98,-657.82,-683.18,-856.08,-1164.5,-1374.9,-1236.9,-1370.2,-1817.9,-1848.8,-1497.6,-1366.4,-1729.8,-1753.3,-1734.8,-1808.4,-1754.8,-1520.2,-1352,-1246.1,-1331.4,-1033.5,-921.02,-1319,-1697.4,-1924.3,-1938.9,-1924.4,-1791.4,-1656.7,-1436.9,-1556.5,-1785,-1667.7,-1444.7,-1467.8,-1552.2,-1543.6,-1449.2,-1363.3,-1265.8,-1122.5,-1117.6,-1062.2,-1040.5,-1319.9,-1565.1,-1643.6,-1692.4,-1505.1,-1256.3,-1207.1,-1221.8,-1279.5,-1267,-1597.8,-1919.4,-1734.4,-1760.1,-1651.8,-1440.8,-1565.3,-1656.7,-1669.1,-1834.1,-2168.9,-2233.1,-1684.4,-1269.8,-1128,-1230.7,-1189.5,-1153.8,-1316.6,-1188.2,-881.74,-1424.2,-2105.2,-2373.6,-2503.1,-2578.5,-2171.1,-1816.8,-2082.5,-2583.5,-2402.3,-1824.8,-1458.1,-1661.3,-1769.4,-1700.1,-1551.4,-1464.5,-1421.9,-1619.1,-1804.3,-1694.1,-1608.5,-1693.5,-2016.3,-2050.2,-1511.8,-1600.8,-1977.9,-1717.4,-1443.4,-1200.2,-887.78,-698.62,-566.93,-617.08,-1168.3,-1520.9,-1798.8,-2090,-2268.3,-2394.7,-2089.9,-1591.9,-1238.8,-1166.2,-931.06,-786.07,-581.4,-610.89,-555.79,-292.69,-344.61,-518.79,-729.56,-789.62,-1067.9,-1307.6,-1131.5,-815.86,-395.51,-188.92,-174.85,-376.54,-497.11,-28.203,483.56,498.58,151.41,-370.57,-352.83,-441.34,-1031.9,-1347.6,-1367,-1314.2,-1083.7,-613.29,-295.04,-293.44,-269.59,-12.108,324.72,676.53,551.34,-20.385,-459.63,-616.54,-657.39,-514.35,-622.14,-1244.9,-1463.6,-875.75,-142.02,188.83,278.26,455.01,748.59,903.59,789.6,492.15,352.01,-115.34,-794.73,-1249.6,-1561.2,-1785.3,-1641,-1119.7,-323.56,499.61,1135.8,762.57,291.88,534.37,625.46,498.84,-80.88,-631.94,-438.84,110.44,763.55,249.66,-584.86,-846.71,-715.36,209.62,2231.8,2843.7,2542.4,2108.7,1352.5,48.881,-634.67,-235.83,707.12,1755.5,1088.3,-1853.7,-5922.3,-8950.6,-12100,-15147,-16606,-17311,-16500,-12355,-7402.2,-6490,-5570.6,-3115,-672.19,2490.5,5412.4,4841.6,4393.7,4080.4,-4058.6,-14370,-14571,-7753.9,-4040.4,-1032.3,2047,-873.59,-5732.9,-3525,3053,1678.2,-7785.2,-14530,-11476,-3956,3403.2,6232.7,4955.2,1460.7,-6352.2,-13952,-10131,735.22,7519.8,7660.5,-221.41,-7922.8,-6772.9,-539.39,1602.8,1965.2,1509.5,1577.9,2990.5,4169.5,3783.4,220.66,-2654,-3454.8,-2258.4,45.574,-363.54,-3193.9,-5323.9,-5602.9,-4142.9,-2815.7,-2293.5,-1824.6,333.42,6458.7,12758,14739,11499,6824.1,2473,-3276,-7530.4,-5893.9,-1596.4,220.59,-914.32,-3238.7,-4179.1,-2563.5,1655,5661,8036.7,9224.3,9600,6177.1,-1328.1,-10310,-16058,-18683,-15719,-9526.4,-3813,-1271.1,290.12,1465.3,781.69,-1049.2,-1885.5,-473.99,1283.4,2534,4434.3,6102.9,5927.6,4554.5,3802.9,2958.3,2086.8,1223.6,611.17,303.31,-483.16,-1069.7,-141.32,855.01,125.93,419.82,1457.8,1704.4,1102,-256.1,-697.91,25.525,1211.6,2010.1,2201.4,1403.8,-949.62,-3230.2,-5085.4,-5821.4,-4707.9,-1598.8,249.28,-1507.8,-4050.3,-5724.6,-6270.1,-5005.4,-3133.3,-1883.1,-672.14,1228.4,1560.1,475.68,-1158.8,-2871.3,-5311.4,-7866,-9149.2,-8281,-2785,1796.7,3740.6,4364.5,4172.1,4106.9,1314.1,-5284.3,-10494,-8531.2,-3808.8,-1876,-1445.2,-2592.6,-4375.9,-5268.5,-5032.2,-4605.7,-3719.5,-2146.6,-1110.7,-799.47,-18.709,-1551.7,-2586.3,1029.3,2879.6,1205.7,-2543.1,-5491.1,-5442.2,-6215,-6856.2,-6317.3,-4657.3,-3952.5,-3976.9,-2064.4,-1131.3,-2053.2,-2268.7,-3163.8,-3692.4,-1953.9,831.11,2151.8,991.36,-759.89,-1745.3,-1983.3,-2292.1,-2612.3,-2003.2,-2159.1,-2915,-4956.2,-6605.5,-6567.2,-4716.6,140.93,5532.6,6513,4122,2424.3,1387.4,-103.23,-1270,-900.15,-689.24,-793.64,1320.9,3130.8,2597.4,1223,-627.51,-1070.3,-971.64,-1790.8,-2028.5,-1809.4,-2012.2,-2305.1,-2777.5,-2048.7,1148.4,2836.5,937.84,-776.85,-2138.5,-1988.7,1257.7,3559,2175.5,-1225.3,-3046.5,-2321.3,-674.56,-618.49,-815.5,-271.86,-66.143,-1360.6,-2226.8,-221.51,1285.8,293.9,1090.8,2436,1518.3,-1010.1,-3606.9,-5928,-6157.2,-3387.9,-583.37,-195.34,-878.82,-613.91,-800.48,-2294.6,-3382.8,-1494.5,-72.389,-496.22,-47.53,-497.09,-2742.5,-2626.5,-423.36,1158,1278.2,837.41,-1380.1,-2591.3,-2752.6,-3724.2,-5057.1,-4886.1,-2723.4,-1252.4,-2134.3,-4811.4,-9647.2,-12115,-9515.3,-4964.4,124.68,3021.5,1479,-2742.4,-4514.1,1196,8914.9,11253,8158.4,4492.5,2859.5,2574.4,1995,-109.66,-3076.5,-4608.2,-5092.8,-5692,-7346.6,-7458.4,-4336,-279.59,853.74,-635.81,-1147.6,-227.05,590.87,756.69,624.11,927.6,1205.2,1216.1,456.08,-263.98,801.77,2472.8,3469,3161.3,-698.56,-1257.1,-1394.9,-1385.5,-1219.9,-1272.9,-1514.9,-1687.9,-1656.8,-1440.3,-1317.5,-1349.9,-1319.4,-1421,-1443.8,-914.98,-688.15,-1304.6,-1836.7,-1781.6,-1540,-1301.1,-1344.3,-1344.3,-1107.5,-1326.3,-1624.8,-1808.9,-1513.8,-1470.3,-1774,-1510.3,-1484.5,-1882.5,-2175.8,-2181.8,-1853.6,-1558.2,-1632.4,-1706.3,-1801,-1814.7,-1870.7,-1968.1,-1826.3,-1607.3,-1338.6,-1084.3,-1274.9,-1664.4,-1776.2,-1648.2,-1566.9,-1627.7,-1567.9,-1590.5,-2123.2,-2409.3,-1414,-558.63,-1172.3,-2197.7,-2065.5,-1156.4,-573.55,-625.57,-931.91,-1131.8,-1147.4,-1254.4,-1273.8,-1256.6,-1445.4,-1834.3,-1854.2,-1719,-1569.5,-1439.8,-1515.8,-1450.6,-1180,-1098.3,-1131.5,-1328.9,-1424.5,-1283.7,-933.08,-807.32,-909.67,-1145.4,-1370,-1616.4,-1771.4,-1559,-1167.7,-832.06,-659.16,-887.21,-924.83,-912.62,-1064.1,-1220,-1161.5,-1068,-1043.6,-1122.6,-1392.3,-1417.1,-1270.6,-1507.6,-1757.4,-1482.1,-1165.9,-974.22,-756.58,-864.67,-929.4,-1148.7,-1032.5,-839.01,-1136.2,-1633.8,-1573.4,-968.49,-752.04,-1010.3,-1589.6,-1691.2,-1352.6,-968.54,-654.43,-765.66,-856.56,-1012.9,-938.44,-971.84,-1060.2,-1111.6,-1029.8,-882.97,-915.61,-1303.6,-1856.9,-1823.8,-1504.8,-1516.3,-1243.8,-987.75,-1210,-1257.4,-615.9,-401.44,-1502.1,-2023.4,-1491.8,-1091.7,-1448.5,-1775.8,-1688.9,-1461.6,-1636.6,-1796.8,-1563.7,-1621.3,-1606.3,-1465.5,-1398.2,-1214.6,-1083.1,-1172.6,-1207.4,-1037.5,-982.91,-1276.1,-1599.1,-1486.7,-1380.5,-1421.6,-1233.9,-1002.6,-1274.7,-1734.2,-1448.5,-1242.6,-1289.7,-1321.1,-1247.4,-1159.2,-1064.7,-1169.8,-1080.1,-920.33,-1154.6,-1298.1,-1269.6,-1126.9,-803.02,-818.66,-1095,-1156.6,-836.93,-886.85,-1079.9,-1034,-982.48,-1067.5,-1173.7,-817,-874.85,-1292.9,-1740.4,-1644.9,-1487.1,-1496.2,-1065.2,-829.82,-1105.7,-718.08,-442.31,-945.09,-1641.1,-1820.9,-1919,-1833.5,-1154.5,-888.37,-1044.7,-887.35,-867.81,-1581.9,-2126.6,-2213.8,-1953.8,-1649.1,-1357.7,-1270.5,-1195.1,-1288,-1422.6,-1391.8,-1231.1,-1353.2,-1336.5,-1342.9,-1220.6,-1348.5,-1483,-1579.3,-1584.3,-1315.4,-1344,-1789.4,-1936.2,-1711.1,-1532.8,-1359.5,-1148.1,-997.37,-862.62,-1299.4,-1705,-1840.2,-1453.1,-909.27,-923.06,-910.14,-936.6,-1096.4,-1124.1,-1174.8,-1235.4,-1227,-1224.4,-1089.1,-1052.2,-1101.5,-1138.9,-1108.5,-934.46,-842.86,-1087.3,-1608.6,-1626,-1358.1,-1225.3,-1162.4,-1052.2,-1105.3,-983.75,-923.1,-965.56,-1004.4,-1182,-1151.1,-882.37,-963.08,-1260.1,-1397.2,-1207.5,-1298.8,-1828.9,-1662.7,-1275.5,-834.27,-804.52,-1149.6,-1227.1,-1210.7,-1352.6,-1375,-1223.1,-1261.4,-1506.9,-2013,-2193.2,-2161.4,-2042.8,-1911.6,-1578.9,-1469.8,-1490,-1262.2,-1244.7,-1147,-1029.4,-1300.6,-853.8,-142.9,-384.49,-1101.2,-1402.9,-1496.6,-1734.1,-1785.6,-1769.1,-1794.4,-1837.5,-1804.4,-1424,-853.9,-622.57,-698.2,