4845.5,-613.38,-7295.5,-8877.6,-2577.3,1388.2,1228.2,905.96,-971.08,-4315.1,-4206.2,-1087.7,1690.2,3169.2,270.79,-3443.5,3724.1,9577,3106.5,-1136.4,-2717.4,-737.56,3070.6,-3685.7,-6097,-3411.4,-8896.8,-4836.7,4937.2,2299.2,-3223.6,-6819.6,-10383,-8176.7,-3374.3,4566,3412.7,-5864.2,-2567.9,11093,8103,-3781.7,-7167.4,-6237.7,-8693,-10033,-7369.6,-3027.3,3097.6,4963.6,3355.2,1777.3,-3533.9,-2264.6,13261,12176,-6535.2,-8848.6,-4192.7,-2592.2,-1644.7,-260.93,-373.93,685.79,3903.7,368.37,-3463.8,491.11,4419.8,921.18,-3348.2,-3638.8,-2053.6,-523.09,1197.4,676.27,-1152.1,-2951.6,-3025.2,-2490,-3855.5,-1186.3,2922.3,4427.3,3447.5,-1170.6,-2129.7,-2479.5,-8911.1,-6079.3,-261.63,3435.6,2337,-1048.6,2551.9,1385.2,-663.79,1030.7,3809.6,2469.3,-6939.9,-15488,-6640.2,1907.6,309.72,-3463.3,-2872.2,969.17,3555.6,1289.4,233.12,125.75,-720.68,649.54,2549.6,268.19,-9470.2,-14673,-10216,1700.4,8892.6,5455.3,693.4,-425.73,236.78,-976.29,-4578.3,-1800.7,7593.4,-1601.5,-11691,-9860.1,-7422.8,-5367.2,-2705.7,4644.6,6138.5,705,-4041.5,-6885.1,-7268.1,-730.3,-1192,-1199.1,-283.21,-162.23,1295.7,698.61,-1184.6,-4422.3,-3814.2,152.28,1726.1,-1833.5,-7144.7,-7713,-5788.5,-2511.3,3156.8,4088.6,-833.82,-2456.5,1996.2,1626.2,-3765.2,-5103.4,-3681.4,-3567,-5232.3,-5090.9,-81.727,3456.7,283.33,-2639.7,-1026.7,32.334,-2253.6,-3090.8,-2262.6,-1768.5,-1030.6,-1372.8,-1988.2,825.53,858.9,-4393.8,-6172.7,-2492.1,-2510.8,-4375.2,102.2,2952.1,-851.39,-5249.8,-7183.1,-6582.7,-7139.2,-8580.5,-5899.9,729.94,5969.9,6212.5,5117.2,1413,-2750.6,-4392.1,-2922.6,-1347.6,-1034.2,-88.861,664.13,1926,2586.9,1437.8,2821.7,5064.8,-67.432,-5148.3,-4864.3,-2484.7,-1083.7,-1102.6,-1659.1,3164.5,3744.9,-1955.1,-5685.9,-5053.6,-2978.9,-4042.4,-3799,320.2,5195.4,6922.3,1770.3,-2634.8,-2853.1,-2689.6,-3002.1,-1593.7,0.81148,62.666,-997.53,-824.51,1675.4,2732.3,572.91,-726.18,-513.02,51.707,211.65,1778.8,-377.3,-4103,-3644.5,-103,3004.6,17.429,-4844.2,-4804.6,-2046.7,-1825.9,556.35,4304.9,3077.7,-163.86,-2573.3,-2432.8,-5480.2,-8239.8,-5283.1,-958.93,985.87,1010.2,505.21,433.08,1132.1,1919.9,1298.2,927.69,770.55,-971.27,-1165,-365.48,-2246.4,-4032.3,-3462.9,-1724.3,73.478,-2207.8,-5474.4,-6645.4,-3097.7,3562.8,3561,-1593.9,-3648.4,-616.62,2854.1,-1499.6,-4965.9,-239.92,2910.3,2053.6,158.9,-5131.6,-8546,-4402.2,772.37,1286.6,936.84,226.59,-3744.9,-5412.9,-2315.4,1999,2001.1,-316.93,-1980.7,-4368.4,-7599.5,-4120.5,2060.6,2639.7,929.36,-231.63,-392.8,91.856,-188.11,-2604.2,-5312.1,-5803.6,-6464.7,-7516.8,-5629.9,-1911.4,2509.9,3883.1,2677.6,1237.6,234.03,-597.71,-873.4,-769.59,-592.07,-590.51,-777.4,-1094.6,-1408.3,-1292.9,-935.82,-961.4,-1221.4,-700.89,501.52,695.39,-887.16,-3069.3,-4194.1,-4661.3,-4873.9,-2643.3,-2327.2,-5095.8,-8562.8,-7256.1,-1721,2612.6,2213.9,394.18,-248.69,-1218.8,-2134.2,-1775.2,-395.44,189.11,-757.3,-1613.5,-1798.3,-2057.3,-2464.5,-2394.2,-2028.1,-2040.4,-2174.4,-2151,-2187.6,-3044.4,-4082.1,-4218,-2557.3,-1665.3,-2425.2,-2993.1,-2416.2,-1757.8,-1661.5,-2241.8,-4249.9,-4510.2,-3714.7,-4000.5,-1648.7,922.63,-347.5,-2572,-2233.8,528,2364.4,876.9,-1156.1,-1619.3,-1033.6,-598.61,-326.26,114.65,-233.71,-668.31,-62.221,-154.1,-835.44,-1533,-2294,-2824.4,-3141.6,-3738.6,-4572,-4212,-1369.6,226.12,393.75,791.18,1355.6,1752.7,1283,431.86,-227.99,-1118.7,-2475.1,-3221.7,-3974.7,-4094,-3330.6,-1898.6,-490.3,-369.32,-1382.3,-2020.4,-1997.7,-1241.7,1085.5,3129.4,3324.7,2854.8,2411.4,1600.7,-179.36,-1872.8,-3211.3,-3773.3,-3071.7,-1312.4,832.61,1208.8,639.92,415.76,563.71,1260.4,1794,814.75,560.31,2121.4,1796.7,-1150.1,-3759.9,-3732.7,-1199,348.4,-371.71,-874.99,-293.77,552.57,1071.1,1217.9,1439.4,1554.2,1619.3,921.14,-400.97,-1003.6,-1459.6,-2015.4,-1992.5,-2003.5,-1445.9,-795.22,-861.81,-1125.6,-1115,-832.45,-748.09,-458.52,1123.4,2409.1,2747.8,2776.1,2877.4,1828.6,132.86,-1825.4,-4012.8,-4489.8,-2093.4,1774.9,4005,3082.8,474.8,-3044.3,-7532.4,-9652.4,-6115.1,-1259.8,665.41,1549.6,3521,3065.4,778.11,-868.85,-701.54,101.11,-915.09,-4104.5,-4108.2,-2177.7,-3004.5,-4270.2,-4541.8,-2379.7,443.04,2505.6,2385.5,2067.3,293.88,-755.91,541.56,1138.7,872.73,1354.5,-92.624,-3382.4,-8037.1,-12204,-14264,-15055,-13157,-8390.9,-4838.4,-2343.3,-202.06,-2611.6,-9235.2,-15165,-16933,-13570,-11158,-11217,-11748,-12888,-12388,-8664.7,-5567.6,-6640.1,-7185.1,-3875,-435.92,1935.8,2633.7,784.61,-2595.8,271.02,5402,6873.3,4983,2701.2,-157.07,-427.91,706.15,826.7,1281.3,829.76,-361.03,-134.84,2301.2,5180,7429.4,8082.6,6185.8,4143.7,4743.8,4673.9,1364.9,-618.96,2582,2844.4,2787.5,-2048.2,-11208,-14467,-6578.1,4304.5,7185.5,5800.1,3269.6,11.349,-3149.2,-2623.3,1077.6,2928.6,2049.8,1690.9,921.72,-3046.3,-4801.2,-3138.3,-4497.2,-8529.7,-10518,-6159.9,378.49,3557.1,6604,12353,14989,10744,11117,15760,12262,2944.9,-2488.3,1554.2,7574.9,7510.3,3924.2,-674.35,-3385.7,-3293.9,-2421.9,-4732.2,-11783,-13499,-7189.1,-2540,-2309.3,-3087.3,-718.01,3718.8,5922.4,0.74903,-6851.5,-6042.8,-218.3,1736.3,-820.83,-2624.7,-26.579,4754.7,3301.4,-1272,-7099.8,-9336.3,-6065.2,-4656.2,-6426.3,-8137.9,-8193.5,-9512.3,-13947,-13033,-8688.6,-6340.3,-12875,-26517,-29389,-6198.9,13844,13338,4996.8,1923.9,1145.6,291.96,182.08,1106.4,2117.7,3014,-1009.6,-6959.5,-5398.5,2743.1,5833.5,3018,-1668.6,-1994.6,-514.13,-45.709,1852.7,2836.8,6126.9,8326.8,7273.7,5001.6,4545.4,5760.3,5318.8,3279.6,2156.3,930.2,-1420.6,-4388.5,-6376.7,-5182,-2195.5,-2006.6,-3737.9,-2744.8,205.62,1608.9,570.25,-2170.5,-4682.6,-6777.2,-8680.8,-8405.9,-4184.3,619.97,1955.7,-579.47,-4349.3,-4769.8,-3500.2,-1567.6,-121.12,-1269,-2312.6,-3932.4,-8398.7,-11266,-8441.2,-5001.7,-7173.9,-11268,-7090.5,1013.9,4617.1,5001.3,3602.4,348.07,-4501.6,-5550.5,-1478.9,2487.6,2984.1,569.7,-676.72,-154.16,-1233.3,-2842.3,-1807.8,-571.2,-1689.2,-2277.7,-294.04,1029.9,2188.7,1079.2,259.81,1190.3,628.38,-394.22,-929.83,-1247.9,-1026.6,-483.11,-448.23,-2583.5,-7306,-11320,-6895.2,2021.8,3584.1,758.93,461.71,2380.7,6342.6,9878.1,9066.9,6075.7,2710.3,1024.3,1272.2,1377.9,-253.91,-1757.7,-3372.5,-4006.3,-3425.6,-4091.7,-4325.8,-4230.1,-4694,-3023.4,-1793.9,165.29,2927.8,3838.9,4573.1,3988.6,2191.5,55.187,-1963.7,-2270.7,-1782.8,-3374.7,-9742,-15737,-14640,-11819,-9055.2,-8372.3,-6793.2,-105.61,4679.2,4708.9,5504.3,5645.9,2553.5,-738.61,-2399.3,-438.81,3348.3,3994.7,2121.4,747.37,44.908,-1056.9,-2086.2,-1649,-827.82,428.75,-524.85,-2040,-1858.4,-374.13,-127.62,-2894.9,-5045.6,-5521.3,-7512.2,-10625,-9442,-4314.5,2367.7,8845.1,7676.8,2094.8,-2078.9,-3647.2,-4659,-6153.6,-6186.5,-3511.6,-656.77,-216.21,1081.5,2398.1,1935.3,-195.59,-2454.3,-4562,-6969.4,-4936.5,-23.658,2059.3,1441.2,705.76,-2100.3,-6381.8,-7985.8,-6131.3,-3986.2,-1756.6,1014.5,379.64,-3086.6,-5363.4,-3484.1,-2053.2,-2711,-1324.7,1914.6,2779,292.55,119.06,492.08,-2186.5,-3689,-1012,2937.2,3393.3,854.66,-954.91,-1562.9,-3159.1,-4047.6,-2625.1,-2594.4,-3934.8,-2495.1,1108.2,2964,1264.5,243.74,3809.8,7830.1,7793.5,3894.3,415.91,-2242.3,-4612.6,-5409.5,-4468.3,-1248.3,2644,1706.6,-3367.6,-3586.3,215.71,1591.8,338.59,973.01,2386.5,2894.7,2546.9,1443.8,240.29,-814.21,-1460.9,-2141.5,-3569.9,-4513.1,-3385.9,-1844.7,-1462.6,-2158.5,-2676.6,-3400.8,-3919.2,-4788.8,-5493,-2065.4,303.51,-650.53,-1362.1,644.03,1542.1,217.14,-3353.4,-6008.2,-3122,832.94,2017,176.46,-1676.7,-2970,-3110.4,-842.5,263.89,510.51,-677.56,-1500.9,-2101.4,-3664.4,-3518,-2602.9,-1653,-1165.9,-1448.5,-171.65,-703.92,-1872.8,-2027.2,-3073.7,-4489.6,-3698.7,-1150.6,-97.829,1301.3,1922,1000.9,-382.41,-1867.1,-2365.5,-2447.6,-3918.3,-5215.7,-5846.4,-5193.4,-3291.1,-1454.9,-46.548,2973.9,3588.2,2442.1,501.86,-3266.2,-5220.7,-4707.1,-3890.6,-3159.8,-1788.9,1783.1,3951.9,3653.4,2791.6,2027.1,403.19,-2359.8,-3709.9,-5303.9,-7284.3,-7235.2,-5990.7,-1805.5,3699,3900.1,156.73,-2182.6,-2767.3,-2238.8,-1201.1,-422.06,-118.76,236.76,-158.77,-2284.8,-2739.8,-3315.1,-4051.5,-4022.4,-4167.3,-2934.4,169.52,1865.2,561.43,-2789.4,-4810.2,-4476.6,-3341.3,-2842.2,-4419.7,-5920.1,-4806.1,-1247.2,2616.7,3796.3,1857.2,44.477,27.961,54.847,-312.69,-1357.8,-2736.2,-4764.9,-7141.3,-7959.9,-4162,1251.3,1646.6,456.13,1979.7,1655.3,-1037,-4002.4,-5384.5,-5191.4,-5594.6,-5719,-2022.8,2216,2845.3,298.78,-1313.8,-1085.4,-2223.5,-2447.3,-194.56,455.84,-441.79,-499.5,-179.92,225.55,-147.41,-794.22,-1404.8,-1391,808.76,3022.2,2754.8,1926.2,1166.4,21.877,-60.316,408.08,532.71,407.06,-180.09,-759.57,-90.678,1390.3,1547,33.778,-1720.6,-2381.1,-3376.5,-4969.9,-5187.5,-3672.9,-1163,-1453.8,-2616.8,-1080.1,1106.2,1371.6,975.01,975.95,1838.3,2026.6,1029,145.26,-338.75,-309.29,-289.42,-1301.2,-2205.3,-2094.1,-2503.8,-3292.6,-2722.2,-944.77,-1262.8,-3007.2,-3515.3,-1908.2,-255.83,1843,2675.1,1323.4,661.31,-39.239,-470.54,-606,-583.53,-308.55,-916.47,-1747.7,-2656,-2519.3,-1510,-1371.3,-1570.5,-1169.9,-459.44,-1274.2,-1741.5,-807.14,-602.56,-953.5,-1245.7,-1575.8,-1313.8,-761.69,-902.4,-1611.9,-1870.6,-1339.4,-1254.1,-1399,-1478.8,-1808.1,-1829.5,-1922.1,-1777.1,-1746.6,-1796.7,-1941.5,-2160.5,-2472.5,-2385.2,-949.95,485.27,-86.634,-1197.4,-1679.3,-2007.8,-2903.6,-3208.2,-2731.6,-1640.8,-1114.3,-1145.7,-1785.8,-2472.1,-2932.7,-2883.9,-2243.7,-1497.4,-931.31,-600.62,398.29,231.24,-855.19,-1776.9,-2540.8,-3266.9,-2726,-1437.1,-876.24,-1368.6,-2337.6,-3532.1,-4480.8,-5200.8,-4327.1,-3296.6,-3180.1,-3187.9,-3648.4,-4874.7,-4313.7,-3352.5,-3016.2,-1783.3,-417.66,1097,2557.7,1521.2,-1315.1,-3286.8,-4092.2,-2786.8,-680.06,-306.67,52.474,1169.1,654.71,-310.75,-939.48,-1024.9,-1315.5,-1674.2,-1829.9,-1903.5,-1916.7,-1995.6,-1250.4,-1003.8,-1169.3,-1616.2,-2225,-1548.4,552.51,1553,668.81,-392.25,-1237.6,-1805.9,-1732.6,-1433,-1279.6,-1524.2,-1820.2,-1830.6,-1908.2,-2327.4,-2244.1,-2637.5,-4040.2,-3248.4,-1473.5,-1472.4,-1431.6,-1131,-323.31,1064,1070.3,-630.52,-2017.1,-2956.5,-3416.2,-3259.3,-2347.3,-1127.9,-640.31,-478.61,-750.19,-1053.1,-1294.8,-1812.1,-1672.2,-917.45,-204.78,-91.173,-603.16,-955.32,-802.57,-88.938,323.78,276.33,-723.06,-2232.1,-2972.3,-3081,-2931.6,-2982.8,-3416.4,-3834.4,-4364.4,-3886.1,-2968.2,64.421,4026.4,2443.4,-127.21,-565.75,516.76,1875,1902,1239.1,885.9,618.63,283.98,94.172,100.78,292.96,864.48,1142.3,1121,372.94,-114.09,616.62,567.37,-1201.6,-2854,-3890.3,-3776.6,-3241,-1546.2,1315.9,2863,1763.9,-446.95,-912.5,436.59,1035.2,402.17,-393.6,-739.22,-862.81,-1534.2,-2262.5,-2478.2,-1847.1,-718.4,-576.85,-595.46,-341.08,-434.37,-640.4,-485.74,-669,-1165.8,-1666.4,-1674.2,-1384.1,-1372,-1817,-1593.4,-701.31,-698.83,-1435.3,-2461.1,-3406.2,-4738.4,-4752.9,-4244,-4038.7,-2147.5,696.5,1928.2,1480.8,426.29,-590.6,-1078.3,-990.4,-644.78,-546.72,-880.57,-1422,-1091.3,-1708.7,-2397.1,-1377.4,-350.69,-862.98,-947.36,-1166.8,-1897.1,-2047.9,-1571.4,-1074.2,-748.66,-762.8,-1135.1,-1515.3,-1646.5,-1496,-1356.5,-1132.5,-713.73,-980.43,-1591.4,-1647.7,-1308.3,-1748.2,-2370.5,-2573.5,-2172.5,-2111.1,-2843.9,-3037.4,-2807.3,-2487.5,-1796,-1317.4,-1528.2,-2069.4,-2221.6,-2017.9,-1842.4,-1642.1,-1054.8,-296.86,-544.27,-2253.3,-3505.9,-3337.4,-2502.2,-1552.2,-1818.6,-3102.9,-3731.8,-3323.7,-2693.1,-1202.8,-589.14,-849.12,-698.57,-715.86,-1052.2,-1227.3,-1053.6,-906.64,-535.02,197.33,339.47,-15.569,-589.72,-886.59,-1112.7,-1222.8,-1566.4,-1994,-1999.9,-1707.4,-1348.5,-1266.1,-1180.7,-1657.3,-2680.5,-2809.3,-2705.9,-3094.8,-3803.1,-4537,-5594,-6079.4,-5048.6,-2947.9,-1473.3,-1473.6,-1022.2,-36.726,901.52,1588.9,1509.2,1521.9,1399.2,457.93,226.74,513.68,369.18,-163.52,-521.21,-67.999,1058.5,732.91,-1159.1,-2424.4,-1706.5,-140.03,-183.22,-1347.1,-2173.5,-2076.6,-1161.8,-905.36,-234.51,556.2,1272.6,603.29,-1953,-3524.4,-3482.4,-2699.4,-2260.2,-1668.5,-1027.4,-767.76,-387.81,11.349,-104.68,-503.35,-493.36,-457.87,-174.19,-3.3955,-803.95,-2292,-2983.2,-2500.7,-2042.3,-1601.5,-1282.8,-1083.2,-1390.7,-1099.2,-405.91,-114.98,402.37,886.06,309.29,-1075.7,-1453.9,-1143.5,-1416.7,-1444.5,-1229.6,-1466.9,-2330.1,-2586,-1822.3,-1473.7,-1484.5,-903.91,-62.419,360.93,775.69,289.57,-370.16,-1390,-2496.7,-2488,-1843.7,-1936.7,-2022.6,-1669.3,-1348.9,-504.72,470.41,230.49,-48.2,-139.52,-1273.9,-2586.6,-2959.1,-2684.2,-1926.3,-1632.9,-1797.3,-2159.1,-2402.9,-2141.9,-1718.2,-2293.6,-2811.4,-2253.9,-2001.6,-1927.9,-1964.8,-1848.8,-1418.2,-1462.6,-1209.8,-920.56,-938.06,-1521.8,-2243.5,-2427.7,-2391.7,-2275.8,-2136.3,-1939,-2080.2,-2186.9,-1717.1,-587.51,806.61,1271.5,475.2,-533.25,-1192.2,-1709.3,-1642.9,-2571.2,-4215.2,-4659.5,-4023,-2222.2,-1001.7,-337.67,-322.77,-553.94,-258.95,639.75,778.49,-809.28,-896.77,-624.94,-1452.4,-2091.8,-1293.9,-302.95,493.98,738.47,974.7,933.92,-269.97,-3013.8,-4200,-4652.6,-4452.8,-2327.3,-583.12,-313.12,199.22,1771.7,2453.3,1417.1,-820.84,-3179.7,-5015.8,-5110.5,-4020.5,-2752,-1126.4,597.33,1338.4,848.19,188.62,-574.88,-1150.2,-737.41,848.55,2188.6,2771.9,2844.9,2551.7,1028.4,-525.73,-2375.3,-4597.8,-4605.7,-3297.8,-2576.8,-2513.3,-2928.4,-2755,-2156.2,-2140.2,-2208.1,-2118.6,-1605.6,-1947.9,-2665.6,-2316,-1534.2,-1262.7,-1544,-1851.5,-1337.9,-817.69,-691.03,-706.49,-1082.9,-1597.1,-2317.7,-2645.5,-2459.7,-2002.6,-1187.4,-576.86,-663.92,-460.91,-178.33,-288.65,-442.22,-506.1,-696.66,-748.2,-949.04,-1169,-1288.5,-2141.1,-3670.9,-4892.3,-5534.4,-5247.9,-3981.4,-2306.8,-773.63,-627.33,-1095.4,-1446.2,-2260.7,-3113.1,-3415,-2383.4,-1019.7,-429.12,88.982,567.35,563.78,-137.02,-555.22,-1017.7,-1278.2,-1067.6,-1104,-1712.7,-1941,-2801.2,-3269.4,-2267.3,376.18,2697.6,2973,2550.3,1707.4,-548.11,-3093.2,-5267.1,-6290.1,-5340,-4426.3,-3682.7,-2262.6,-1321.6,-425.41,486.17,748.8,1003.4,1336.7,904.49,412,407.88,190.97,104.62,683.02,1463.8,2159.1,2197.3,1565.9,153.02,-981.57,-829.98,-1161.8,-2702.7,-2594,-100.05,1294.1,-364.46,-2250.5,-4036.4,-4049.3,-2233.1,-1416.3,-2014.7,-2444.6,-3327.1,-4148.5,-4713.1,-4546.3,-2264.4,-1329.2,-2474,-1810.3,395.85,2594.9,4379.4,4058.1,2885.3,1655.6,16.903,-3127.6,-6677.8,-8516,-7818.9,-4376.2,-1318.3,306.18,1103.9,1537.4,717.94,583.75,2446.6,3638.7,3606.4,2870.4,1517.2,476.67,-716.5,-2407.1,-3102.3,-3148.7,-300.19,3905.1,3929,3164,-561.11,-10635,-14942,-7017,853.46,897.98,-2540.9,-4305.5,-3307.2,-925.55,1063.9,1708.1,366.18,-1600.6,-4607.7,-7998.6,-7666.5,-3339.7,202.19,-77.3,-1825.6,-2789.3,-3522.8,-3671.9,-2640.3,-2114,-2207.5,-2319.9,-1656.7,-984.3,-962.95,-1279.7,-1689.5,-855.98,636.85,29.295,-1972.8,-4108.6,-4504,-3238.7,-1392.7,1136.1,3481.5,4732.2,4714.7,2252.6,-2796.6,-6608.4,-6979,-6709.4,-7270.3,-7244.2,-4893.1,-1914.1,1111.8,962.05,-860.33,-494.91,-933.43,-2480.3,-1831.6,-1224.9,-1082,-1072.2,-681.52,1364.3,2093.1,1580,1194.7,680.86,826.24,3041,3957.3,1967.4,415.33,950.13,1178.2,645.63,-347.87,-578.3,-492.83,-1880.9,-2697.3,-3607.8,-4289.3,-1223.1,1871.4,2035.2,-236.02,-3297.6,-5551.5,-6862.5,-6392.9,-4878,-2751.2,267.19,2274.8,2248.6,868.95,-182.33,-98.176,-77.873,-143.81,264.98,-2175.3,-4809.2,-4827.6,-3708.7,-1741.7,-1130.6,-1248,-1270,200.08,-238.6,-2555.3,-4353.6,-5299.3,-5698.7,-6719.2,-8882.2,-8969.5,-4063.1,1267.1,4453.6,6763.7,5730.3,1240.2,-1576.5,-1149.7,-20.703,1547.5,-10.57,-976.88,1832.3,4107.4,3262.6,-2748.5,-9366.2,-7691.4,-4072.6,-5470.1,-4002.6,147.33,1900,1685.5,-1065.9,-2735.5,-1468.7,85.978,759.45,-749.55,-1491.3,-1124.6,370.56,2270.1,3438.3,4287.6,3222.6,924.16,-833.83,-2237.5,-2573.9,-1711,-838.7,-1020.5,-187.76,790.18,1269,103.31,-1545.1,-1852.5,-1360.7,-1616.3,-2240.2,-2688.3,-2477,-2304.5,-2086.2,-1310.1,-2043.3,-3263.3,-3048,-2854.7,-2236.1,-963.22,-533.01,-928.94,-1615.6,-2708.7,-3303.2,-3836.9,-5486.5,-4687.3,-1054.4,634.91,149.74,228.03,981.39,181.66,-1976.4,-4070.5,-4284.1,-3572.7,-3952.5,-5563.5,-5224.7,-2100.3,-904.27,-1599.4,662.74,2062.4,-586.58,-4462.6,-5263.8,-3836.3,-3448.2,-2256.7,-37.44,2355.4,2843.9,1335.4,456.78,-35.276,-362.89,-774.9,-675.52,-460.81,-683.29,-901.53,-902.89,-1045.3,-1750.9,-1266,-1.8911,543.41,609.34,116.56,-960.77,-1943.1,-2471.2,-3155.3,-2900,-1641,-715.39,421.83,1071.1,416.76,780.24,918.77,-157.32,-1688.5,-2812.7,-1998.7,-931.76,-786.62,-1557.3,-2818.6,-3695.8,-3402.8,-1961.7,-787.07,-880.27,-1670.6,-2048.8,-2397.5,-2506.4,-3052.7,-3360.5,-2816.6,-2087.5,-606.92,1356.9,1572.6,523.93,-85.249,-408.01,-325.19,165.62,878.19,798.24,-230.64,-2376.4,-4159.4,-5890.2,-7264.8,-7045.5,-5442.4,-2734.7,-1217.2,18.807,2483.3,3944.8,1370.2,-3273,-4563.4,-3114.9,-1284.7,-1271.6,-324.96,2290.1,2790.5,652.25,-1193,-1516.4,-1228.8,-1656.3,-2119.8,-1415.2,-585.74,-209.79,313.62,463.26,-608.62,-2347.7,-4132.7,-4745.8,-3313.3,-1171.3,680.58,1382.7,1555.7,955.47,-95.687,-1320.3,-2039.4,-3324.6,-4111.2,-3515.9,-2857.1,-2218.6,-1931.4,-2440.1,-2387.1,-1306.1,953.05,569.97,-2231.5,-4146.6,-2861.6,-1201.9,870.7,1197.8,-1734,-4614.5,-6930.5,-6659,-1544,3805.9,5216.6,3624.1,1644.9,380.77,12.408,-1.3155,136.51,34.689,392.43,1224.3,1526.2,551.87,-600.93,-2651.5,-4380,-3291.5,-1861.9,-2031.4,-2607.2,-2735.7,-1703.2,-636.81,-933.5,-1413.9,-1121,-1273.8,-3426.7,-4970.6,-4693.8,-5017.3,-4998.7,-795.21,3697.6,3491.1,1184.8,569.56,2309.3,2969.9,1318.1,-1656.6,-4207.7,-5550.5,-5400.4,-4424.4,-2505,1005.8,2101.2,819.84,-333.03,-1432.2,-1446.6,-1352.3,-2204.6,-2293.1,-2180.5,-1856.4,-1108,-597.41,-1013.8,-1742.6,-1563.6,-739.85,-163.09,-141.09,-1680.3,-3611.2,-4433.8,-3806.6,-2635.9,-1109.8,92.916,-541.66,-1709.8,-2352.3,-2609.2,-2305.6,-1675.2,-223.02,1015.6,1027.6,81.655,-507.7,-634.81,-1278.3,-1501.2,-818.59,-248.95,-363.77,-718.16,-1214.2,-2065.2,-2739.8,-2331.8,-1360.6,-758.12,-1487.1,-2658.3,-3462.9,-3247,-1386,1528,2483.2,1223.5,-2184.2,-5586.3,-5009.6,-2047,-570.57,-1206.5,-3220.5,-4430.6,-5126.1,-6248.2,-5785.1,-1841.5,-449.03,-2700.4,-3583.6,-678.14,1354.7,322.19,-290.03,951.38,1515.4,975.83,-504.68,-1613.3,-2225.7,-2681.5,-1430.5,177.1,112.78,-95.327,-698.22,-1577.5,-1534.8,-1090.6,-364.97,549.47,496.58,-1238,-3502.5,-4852,-3077.1,-800.85,-1088.5,-1831.3,-1905.3,-2721.3,-1814.6,55.971,43.675,-457.79,-1717.3,-2802.8,-1322.3,1309.4,2639.8,2107.5,873.42,510.75,1342.2,1744.6,738.99,-1137.8,-2463.2,-2101.8,-616.78,-907.74,-2165.4,-2819.7,-3861.5,-4338.9,-2891,-930.18,130.43,-222.61,-468.62,-70.544,310.98,474.11,233.28,-988.92,-3616.8,-5404.6,-5677.4,-3877.9,330.97,3820.6,4243,1590.9,-1501.4,-3545.4,-3729.1,-2807.3,-1537.1,-591.8,1157.2,1874.8,-295.34,-1467.7,-1432.7,-2008.8,-2267.1,-2870.3,-2495.4,-1094.2,-861.66,-845.8,-1072.4,-2478.1,-2320.5,-681.73,388.69,-181.18,-924.65,-851.37,-236.33,-821.4,-1916.6,-1144.7,163.95,-194.45,-1773.6,-2138.3,-1203.2,-83.012,359.28,-388.93,-1359.3,-1587.3,-1017.1,-359.8,-19.07,-419.42,-1691.9,-3152,-4157.6,-3987.9,-2547.2,-1136.6,-608.73,-1372.6,-1394.4,46.948,220.36,-946.06,-1997.4,-2807.3,-2571.5,-2251,-2166.3,-2163,-1842.7,-1763.1,-2726.2,-3032.6,-2056,-887.1,-644.28,-1064.6,-1840,-2317,-2713.8,-3778.3,-4215.1,-3402.9,-1958.9,-793.27,-859.91,-1401.1,-1724.6,-1531.9,-1035.7,346.76,870.61,-171.69,-1065.4,-1576.7,-1972.6,-1030.1,163.49,461.89,-1409.6,-3226.1,-2772.1,-2544.8,-2143.4,-2950.2,-4216.8,-2503.7,-752.18,-857.95,-380.53,-452.3,-623.75,-653.85,-1009,-1437.1,-2654.4,-2664.2,-1470,-1951.6,-3009.2,-4410.6,-6044.4,-6548.7,-3889.5,-743.88,227.06,-391.39,-693.4,-465.87,132.91,-117.42,-1342,-2439.6,-4066.2,-2305.9,1194.5,1410,550.89,-252.95,-872.73,-1195.4,-1194.7,-452.98,287.52,220.53,-622.21,-1731.2,-2498,-2487.4,-2653.6,-2823.8,-2239.7,-743.97,414.13,594.49,457.04,298.01,27.555,-64.139,185.27,228.13,-190.18,-712.6,-988.85,-1017.5,-429.49,576.04,359.78,-803.24,-1094.7,-748.35,-768.9,-758.99,-714.19,-1015.7,-1442.3,-638.1,949.21,1787.5,947.37,-119.63,515.64,1832.9,1396.3,181.52,-561.21,-69.816,223.19,-915.36,-3087.4,-3983.5,-3847,-4746.3,-5293.8,-5424.5,-4632.9,-2355.8,812.73,3209.9,2772,14.367,-1037.2,45.224,1601.7,1051.1,-974.84,-1011.8,-454.75,-1635.6,-2959.4,-2774.9,-2360.2,-1854.5,-1142.1,-901.47,-591.86,420.69,951.29,486.31,-382.44,-923.86,-900.83,-819.33,-682.74,-212.5,568.35,1512,720.69,-1379.7,-2410,-2318,-2478.7,-2900.6,-3063.5,-2949.6,-2611.2,-2440.4,-1961.6,-1402.9,-1464.3,-1433.4,-1172.3,-961.79,-561.46,-285.83,-501,-968.88,-2228.9,-3659.3,-3554.2,-2255.6,-624.1,273.67,30.551,-586.96,-1388.4,-2580.1,-3146.4,-3280.8,-3878,-2894.7,-2679.3,-4180.3,-3340.6,-1224.2,-1171.8,-1549.4,-1709,-1606.7,-1654.5,-2649.8,-3557.8,-3738.4,-3800.5,-3305.3,-2672.7,-2484.8,-1432.6,-136.44,-504.96,-2066.4,-3246.4,-3376.8,-3154,-3379.3,-3467.9,-2972.2,-2570.5,-2849.6,-3282,-2894.7,-2214.3,-1586.1,-1088.2,-593.55,-935.37,-1761.7,-2314.6,-3369.2,-4506.1,-5061.1,-4619.3,-4049.8,-3694,-3264.3,-2024.3,-336.43,856.84,1207.2,1134.3,762.87,-270.41,-1876,-3215.3,-3081.4,-1174.7,-238.52,-461.41,-1313,-2716.5,-3713.6,-3531.7,-3019,-2808.9,-2315.5,-1002.3,795.81,2053.1,1396.5,-355.67,-1700.5,-2277.9,-2162.7,-1870.1,-1328.4,-68.555,1591.4,1951.5,1150.8,423.95,-621.86,-1559.3,-2071.1,-2885.3,-1997.9,408.55,3025.1,4357.9,3886.1,2114.6,464.52,-714.39,-1113.4,-827.63,-429.73,-457.28,-1145.8,-1467.3,260.19,3059.3,2560.7,995.57,1108.3,1402.7,1003.9,1347.8,1899.3,382.4,-1247.4,143.64,4632,8252.3,8470.8,6949.8,6168.6,5454.6,1801.9,-1291.4,-3666.3,-6590.9,-8715.7,-8299.5,-3587,3733.5,7903.5,7278.2,4915.8,2522.1,361.7,-942,156.37,1092.9,195.91,-2084.7,-3052.1,-1805.2,-2057.9,-3409.7,-980.98,3504.6,2993.5,-2064.3,-6869.9,-10942,-13251,-10600,-5967.7,-2187.1,-293.56,1644,2187.6,-1080.6,-7606.3,-11585,-8737,-4820.9,-6044,-9440.2,-11994,-7544.2,3827.1,-897.19,-665.54,-365.73,-147.96,27.766,-75.106,-841.06,-1343.1,-1306,-1394.7,-1772.5,-1771.6,-1795.4,-1922.8,-2054.5,-1523.8,-746.69,-1037.3,-1937.2,-2192.7,-2375.9,-2612.4,-2216.2,-1364.7,-1481.5,-1664.9,-2218.4,-3224.5,-3971.3,-3611.5,-1988,-213.65,783.09,154.94,-54.784,-206.69,-617.93,-1054.1,-895.63,-775.4,-995.75,-1297.9,-1632,-1508.3,-1109,-1148.5,-1531.8,-1549.9,-1514.1,-1762,-1614,-1495.6,-1592,-1669.1,-1596.5,-1362.9,-1416.3,-1476.5,-1233.6,-956.7,-853.89,-810.91,-969.32,-1112.6,-1490,-1563.8,-1316.5,-924.47,-990.41,-1652.6,-2474.4,-2599.4,-1866.7,-968.05,-777.83,-976.35,-1003.4,-984.56,-1176.3,-1303.1,-1263.9,-986.7,-1422.8,-2342.6,-2196.3,-1881,-2151.7,-1767.3,-945.8,-145.29,80.796,-693.2,-1555.9,-2318.6,-2829,-2288.9,-1559.9,-1232.7,-1171.1,-1523.2,-2028.1,-2171.4,-1851.8,-1394.3,-1485.3,-1749.5,-2131.2,-2630.2,-3419,-3737.6,-3230.4,-2458.2,-1895,-986.65,-7.8752,411.29,1078.2,1068.1,207.42,-202.36,-82.077,-120.15,-357.11,-799.56,-999.1,-827.75,-587.07,-371.24,-24.895,-350.85,-1510.5,-2368.1,-2531,-2485,-2046.5,-907.85,-276.5,-338.11,-730.72,-841.23,-962.71,-1190.2,-877.19,-705.62,-832.12,-1061.5,-1194.4,-1261.3,-1630.8,-2126.8,-1800.8,-1216.5,-945.94,-981.91,-837.51,-1055.6,-1320.3,-1604.3,-1542.4,-980.49,-375.68,-208.72,-837.13,-1353.9,-792.72,-72.49,-256.22,-408.18,-720.3,-661.94,-636.74,-772.13,-953.51,-681.65,-551.3,-347.35,-344.86,-626.26,-734.27,-711.93,-735.59,-1079.6,-1478.9,-1681.5,-1482.1,-1210.6,-1126,-1179.6,-1415.9,-1738.1,-1932.6,-1908.4,-1716.1,-1521.3,-1412.2,-1169.2,-1024.3,-1202.2,-1521.4,-1806.2,-1874.1,-1486.9,-1004.4,-796.4,-892.54,-1126.4,-1227.3,-1118.1,-1139,-1193.3,-1060.4,-983.2,-827.23,-758.72,-970.34,-1280.8,-1485.7,-1319,-890.12,-712,-720.16,-937.35,-1126.4,-1307,-1284.7,-1161.9,-1006.1,-817.27,-609,-507.84,-617.57,-974.59,-1309.9,-1464.4,-1430.7,-1295.7,-1143.5,-1205.4,-1399.4,-1452.9,-1358,-1195,-1336,-1473.6,-1256.4,-1048,-1106,-1271.8,-1516.3,-1783.4,-1773.8,-1395.7,-827.82,-967.25,-1386.3,-1758.8,-2097.4,-2208.3,-2076.5,-2029.5,-1831.5,-1692.5,-1609.1,-1530,-1775.8,-2049.7,-2272,-2219.3,-2081.5,-1786.5,-1681.9,-1870.6,-2261.5,-2560.5,-2510.1,-2445.4,-2425.9,-2506.9,-2536.5,-2404.6,-2488.4,-2718.1,-2815.3,-2821.2,-2585.4,-2012.7,-1885.5,-2133.4,-2443.2,-2688.5,-3083.3,-3374.5,-3246.5,-3211.4,-3089.6,-3101.6,-2935.1,-2504.8,-2096.7,-1530.4,-1414.5,-1586,-1709.4,-1862.8,-1986.2,-2007.4,-2086.1,-2135.2,-1997.9,-2058.7,-2078.5,-1962.6,-1664.6,-1403.8,-1339,-1488.2,-1532.8,-1267.6,-1031.5,-773.56,-719.63,-970.47,-1324.8,-1466.4,-1508.6,-1501.3,-1259.2,-968.82,-803.24,-801.84,-688.21,-564.34,-801.83,-766.63,-577.3,-621.15,-660.92,-741.88,-976.95,-1119.5,-1069.1,-760.51,-163.99,479.44,258.64,-470.74,-1122.2,-2177,-2371.2,-1585,-1138.3,-1026.2,-492.06,235.79,663.05,1895.1,2260.6,875.12,213.92,485.37,815.56,720.52,542.05,436.04,566.7,1119.2,1000.5,867.78,827.6,410.6,-460.27,-1637.6,-2372.3,-2852.9,-1778.9,271.35,1351.4,1564.2,2353.6,2278.6,1702.7,740.11,-869.2,-1918.3,-1448.8,-1675.4,-2434.3,-887.4,848.84,2595.5,3915.2,4880.2,4922.6,3041.9,1314.3,-281.91,-1899.2,-2333.7,-1093.7,-800.73,-1214.2,-1813.8,-1322.6,927.59,3166.6,4543.9,5114.5,4366.5,3287.9,2660,2118.2,1612.6,632.12,329.12,876.41,2168.2,1966.6,-330.14,-1273.7,-1460.2,-1045.6,-814.04,-139.68,1970.8,2818.4,1137,-2862.1,-7146.5,-8968.6,-8957.6,-8208.5,-7234,-6780.4,-6272.8,-6121.2,-7922.5,-11443,-14921,-16609,-17565,-18878,-19717,-18581,-16448,-11398,-5893.5,-1728.5,1244.6,1730.4,2499,3331.4,2150.3,2097.7,3174.8,3281.7,2972.9,2838.8,1733.4,-439.74,-1493.3,-2326.9,-4280.5,-6054.3,-6822.5,-4985.6,-2439.5,-2468,-4040.2,-4434.8,-3765.1,-4944.1,-3749.6,482.52,3742.9,5981,8022.1,9657.6,9451.6,8809.6,7653.2,6364.9,3163.3,361.42,-949.92,-1289.4,-1372,-1992.3,-3655.6,-4650.4,-3992.7,-3424.5,-4987.4,-6615.4,-5580,-3532,-3769,-5688.6,-6733.7,-7128.6,-5954.1,-4695.3,-3041.9,-1332.1,-2374.4,-4557.9,-4505.3,-3231.8,-3057.2,-3377.2,-3970.9,-4020.1,-2888,-3589.7,-4753.1,-2683.1,556.92,489.76,-664.85,-882.58,-714.41,-1353.9,-1716.5,-1802.4,-2188.8,-2316.7,-2815.5,-2654.4,-568.14,2247.3,3373.5,1635.2,-811.76,-1470.6,-474.33,-150.32,166.17,737.88,1870.7,2074.6,451.25,-388.9,1711.3,3179.3,3028.3,2837.6,3579.1,4254.6,4196.6,3219.4,3287.6,3320.6,2837.4,2504.6,2718.3,3248.7,3395.6,3462.4,2843.4,1743.3,492.83,-502.34,-2397.8,-4124.4,-2603.5,217.82,1813.6,3085.2,2265,2164.2,5772.5,8185.1,7786.5,5509.9,4118.6,4191.4,5098.3,4796.9,4240,3345.3,2906.1,2273.4,1768.7,-413.82,-2196.1,-1710.9,-1710,-2254.5,-1943.6,72.028,2228.2,4009.7,2436.3,-1450.8,-4275,-4156.5,-2043.2,-2200.1,-1269.4,586.07,-1950.9,-3732.8,-2149.6,1461.8,3044.2,-8.6071,-1879.5,-2192.2,-3202.9,-4524.6,-5641,-6155.6,-6046.8,-6372.2,-7235.3,-7265.9,-6670.5,-7877.7,-10118,-11702,-11838,-10991,-11833,-14965,-14620,-7871.7,-1175.4,-204.25,-2542.6,-3190.2,-5173.5,-8256.7,-9063.8,-8270,-7017.2,-5343.9,-4574.2,-3123,-1473,-2741,-5815.1,-8071.8,-8900.6,-8400.4,-6311.9,-2275.3,-774.32,-1563,-2059.3,-2015.9,-1517,-874.94,504.47,605.58,-1441.5,-3281.8,-2727.8,-1846.9,-2764.2,-4863.8,-6541.3,-6374.6,-4149.6,-4020.8,-5984.5,-4800.7,782.12,5502,6489.9,4861,3467.7,369,-1150.2,-737.65,-1297.5,-3584.6,-2648.6,2081.4,4159.8,4900.1,3944.2,3437.1,5004.4,4716.3,2368,473.31,-796.38,-2131.1,-2682.2,-1308.3,1018.9,2540.6,3401.1,2653.4,1164.6,695.27,1444.1,2026.3,1171.8,671.87,657.25,629.54,1101.9,1789.7,2424.7,2705.6,2374.1,1018.7,-940.46,-2761.3,-4343.8,-4122.6,-3136.5,-2293.8,-1347,-1568.7,-2685.6,-2241.3,-1692.3,-3529.8,-3374.8,-2004.4,-1743.5,-3092.3,-3676.7,-960.54,2499.4,4067.4,4449.7,5685.5,5582.2,4735.6,4369.4,3303,1523.7,-298.86,-2102.5,-2264.4,-351.9,295.76,-194.19,447.22,1051.6,880.89,1232,3187.9,3141,1672.8,272.87,-1956.3,-3711.3,-4339.6,-4456.9,-3661.6,-1275,1744.9,3045,2413.8,450.49,-2295.2,-3415.3,-3379.8,-3629.9,-3175.9,-1664.6,-1321.6,-1731.5,-2370,-2937.5,-2780.6,-1559.7,1884.5,1732.1,-430.61,167.69,135.66,-2612.3,-4986.9,-6016.6,-6556.3,-6291.4,-4000.4,-1725.3,-765.95,-283.94,198.09,838.24,-430.75,-3593.6,-7165.3,-8533.7,-6733.2,-4110,-2593.4,-1449.7,140.92,-817.66,-2267.6,-2413.3,-2923,-3821.7,-4161.5,-543.03,3257.3,3062.1,1429.4,647.46,287.68,-303.61,-1517.3,-2188.2,-2597.1,-3699.1,-4331.7,-4498.3,-5155.2,-5003.3,-4810.6,-4568.3,-3354.2,-1736.5,-2907.9,-3555.6,-1220.3,2074.2,3120,2425.8,1707.4,1545.7,821.22,-680.44,-2779.9,-4768.5,-7356.7,-7633.3,-6207.1,-6501.7,-5540.5,-3272.2,164.42,998.88,675.66,1252.7,-94.706,-3478.4,-4472.3,-4651.7,-5675.8,-5700.4,-3281.6,1121.8,3306.6,4110.5,4046.3,2364.2,1138.2,621.81,-132.31,-1773.2,-3552,-5679.6,-6776.2,-6342.2,-6977.7,-5699.4,-575.75,3946.1,4129.5,2417.9,2011.2,1706.7,181.86,-1527.6,-2568.5,-2106.3,-909.68,-149.79,-1204.2,-1397.1,-1509.3,-3415.1,-4532.7,-4041,-4086.7,-4456.9,-4062.4,-4313.5,-4990.5,-5769.4,-6825.8,-1476.9,5095.2,5383.6,3000.2,2951,4582.7,4293.6,3576.9,3360.9,2585.9,468.05,-1876.4,-3209.4,-3711.8,-3488.3,-2469.7,-1309,-1922.5,-3085.6,-3147.3,-856.91,3272.3,5455.5,5905.5,5144.4,3116.3,328.45,-1832.2,-2935.9,-4070.8,-5511,-4217.7,-2091.7,-1188.7,-218.43,1183.4,1917,146.62,-3962.2,-6519.4,-6210.9,-3550.7,52.84,2082.4,344.81,-3391.5,-4175.6,-2525.8,-2401.3,-1904.2,1332,3946.8,1737.4,-1012.8,-547.94,428.19,955.96,1128.8,114.42,-786.58,-1165.8,-728.84,-141.2,292.33,-76.044,-392.27,-1523.3,-3501.6,-4670.9,-5080.1,-5773.3,-6493.6,-4144.3,-717.28,-10.674,732.68,3450.2,4591.6,2788.8,131.57,-1546.4,-3577.5,-4346.8,-4613.8,-4500.2,-4359.3,-2767.3,993.08,2759.8,1567,-340.14,-1952.3,-2426.6,-2576.7,-2958.3,-2568.8,-2682.1,-1589.8,1768.1,2945,1063.3,152.29,-244.45,-274.52,-1402.7,-2286.2,-1397.1,864.37,1249.5,-645.99,-1654.6,-1019.2,386.95,630.18,-1315.7,-3680.9,-4567.6,-5279.9,-5997.2,-5439.2,-1623.7,2195.3,1230.3,-1015.2,-1103.1,-236.72,-329.24,-1261.2,-567.96,1712.5,2012.8,588.19,-702.38,-1902.4,-3038.8,-3185.2,-2868,-2837.5,-3379.1,-3904.4,-3956,-3469.3,-2239.5,-1474.1,-1410.2,-1615.3,-2253.3,-3088.1,-4220.9,-4589.4,-4305,-4728.9,-5652.8,-5922.5,-4498.2,-2765.8,-2391.4,-2592,-2693.1,-2307.2,-341.78,2349.3,3589.5,2927.4,1869.6,1194.4,882.49,98.302,-277.5,224.72,253.72,-610.91,-1737.1,-2182.1,-2268.2,-2616.9,-3600.9,-4664.3,-4124.4,-1608.8,331.92,-25.737,-447.89,-223.65,301.56,467.78,543.17,412.3,49.327,-170.46,-699.21,-1480.3,-2125.3,-2470.4,-2618.6,-2790,-2123.3,-1175.1,-627.68,-444.36,-734.15,-1077.5,-1499.4,-2097.2,-1752.5,-719.78,-54.054,-153.87,-990.93,-1799.9,-1725.4,-1708.6,-1855.9,-1422.3,-817.78,-1161.5,-1233.4,-477.22,292.47,114.87,-892.33,-1681.8,-1708.6,-642.28,-482.41,-1181,-1232.2,-1052.3,-1805.4,-3008.1,-3044,-892.78,655.57,387.03,-216.53,59.074,296.94,-391.93,-874.2,-847.72,-1104.3,-1261,-1067.6,-1036.8,-1700.9,-1692.2,-845.21,-506.96,-729.75,-987.62,-1239.1,-1629.8,-1847.5,-1927.9,-2163.2,-2583,-3060.9,-3017.6,-3132.1,-3273.8,-3109.1,-2907.8,-2976.8,-3416,-4065.3,-4896.4,-5274.6,-4917.7,-4492.3,-3740.4,-2405.5,-864.8,-112.48,-438.05,-900.14,-1359.6,-1841.3,-1733.9,-1285.3,-1266.7,-1133.6,-776.32,-724.01,-699.1,-680.06,-792.8,-699.61,-1104.6,-1770.6,-2222.1,-2515.1,-2660.1,-1815.8,-988.4,-489.38,124.79,302.73,898.68,1266,608.59,93.654,-218.6,-561.94,-1669.5,-2877.5,-3290.7,-2139.4,-529.6,-370.2,-478.18,-392.03,107.29,1744.1,3058.4,2892.5,2279.1,1870.1,1350.7,894.19,507.21,867.35,1247.5,953.27,184.47,-235.34,-130.36,-87.437,-17.022,-495.04,-1582.9,-2043.4,-1603.9,-343.63,-335.14,-1257.3,-648,323.4,9.0886,-410.77,450.99,1003.7,744.77,290.12,-307.27,-1066.2,-1838,-1823.9,-1559.3,-944.54,208.21,790.4,-357.14,-1919.8,-3198.7,-3916.9,-4296.1,-4551.9,-3539.1,-337.66,2608.1,1947.8,243.97,-212.17,95.142,150.35,-296.62,-1010.2,-1859.3,-2852.8,-2991.5,-1713.8,-170.61,520.38,391.07,-418.47,-1290.7,-2087.1,-2916.6,-3047.8,-1770.3,-407.77,-428.57,-1606.9,-3367.2,-5731.8,-7360.8,-5654.5,-2026.8,-331.73,-1784.6,-4995.6,-8026.2,-8412.6,-7124.7,-6554.7,-6158.8,-4485.7,-1569.8,1766.5,3584.4,3913,2525.1,-447.12,-1996.4,-1340.3,-212.39,-707.11,-1718.5,-1851,-2907.5,-4790.8,-6515.6,-7772.1,-9357.8,-11727,-14372,-14894,-7852.5,1924.3,5839.7,3228.3,1355.6,2527.8,3075.8,639.8,-1580,-1396.8,307.93,1617.4,1882.9,1683.4,1559,1394.5,951.67,480.06,590.75,424.82,-558.14,-2106.4,-3198.8,-2904.8,-952.39,259.94,109.04,-1832.3,-3956.1,-4564.3,-3565.5,-1627.8,-1132.4,-3309.9,-5911.2,-9440.6,-14561,-17147,-16131,-10917,-2082.3,4304,7915.8,10983,8776.5,3609.8,7.0913,-187.76,3430.7,5134.8,3419,2014.4,1896.4,1548.9,1722.9,888.31,-2803.9,-8779.5,-13537,-11715,-3104.6,2686.6,3394.3,1519.6,-87.683,-669.42,1773,7435.1,11057,8945.8,3197.9,-349.03,-1359.7,-1545.4,-2227.1,-2365.7,-243.8,2046.3,2877.7,3731,3224.2,1554.9,842.46,1348.3,1370.1,1616.6,2481.4,1896,845.4,483.65,946.47,1737.1,1735.5,844.69,-5975.7,-6227.9,-4631.5,-2729,-1473.9,-1335.8,-788.03,1296.6,3889.9,2976.2,12.894,-2013.7,-3763.1,-4548.8,-2013.4,2208.2,2504.8,-1422.6,-4708.6,-4942.1,-1638.8,2870.8,3361.3,1563.3,1071.2,1074,687.87,247.43,-976.55,-1922.2,-2941.8,-4851.9,-5645.8,-5859.4,-4333.5,31.936,3837.5,4172.8,2611.9,1049.4,-309.38,-2091.7,-3896,-4185.1,-3156.3,-258.5,2808.6,2748.5,716.65,-615.22,-1410.5,-778.58,456.04,644.3,403.64,-82.191,-596.99,-831.02,-806.4,194.72,1007.5,-55.326,-1114.8,-693.25,-693.22,-1213.9,-1250.1,-1352.4,-1281.9,-1129.2,-1075.6,-797.9,-748.28,-717.05,-293.36,-50.495,-493.99,-1566.6,-2441.8,-3155.1,-4254.8,-4094.6,-2136,674.66,1530.8,164.8,-1491.9,-1543.6,-454.65,-389.94,-187.16,592.25,599.4,-87.403,-671.6,-1053.1,-962.65,-795.28,-922.5,-1671.5,-2734.6,-3377.4,-3491.6,-3256.3,-2880.8,-1925.1,-636,-340.71,248.31,473.44,-508.01,-1695.9,-2091.6,-1867.2,-1414.7,-862.12,-913.99,-1604,-2421.4,-2169.5,-1816.8,-2346.2,-3217.8,-4099.5,-4478.9,-3424,-2092.6,-491.86,392.75,-833.16,-2043.5,-1622,-524.19,-783.33,-1758.7,-2281.2,-2645.4,-3594.5,-5078.8,-6096.7,-5257.6,-3731.2,-2852.6,-1418.3,609.26,-173.55,-2355.7,-2688.2,-1505.4,-748.48,-1249.2,-2192.2,-2437.8,-1756.8,-1246.7,-1701,-3077.4,-3963.7,-3695.6,-1956.5,-215.01,5.4467,-971.87,-1494,-1136.9,-947.75,-1993.2,-3319.8,-3473.4,-2825.9,-2110,-1750.7,-1695.4,-1813.8,-1506.4,-916.91,-1054.1,-1322.2,-1461.5,-1190.7,-1055.5,-1433.9,-2289.4,-2513.6,-1689.7,-699.04,-269.9,-702.34,-1176,-1461.9,-1716.1,-1694.1,-1799.9,-1654,-1614.3,-2393.4,-3387.8,-2226.3,321.72,1433,698.45,-1183.8,-2439.7,-2699.7,-1992.2,-552.8,161.61,-84.16,-892.82,-1223.4,-155.28,633.91,161.41,-429.26,-295.84,220.64,516.6,885.61,895.04,296.57,-555.69,-1755.3,-2433.3,-2098.6,-743.5,73.039,98.018,760.08,1141.4,656.47,-18.364,-50.721,433.45,1136.7,1489.5,972.89,-377.61,-1450.4,-1739.3,-1350.6,-289.73,-39.455,-353.22,-428.48,-317.97,-529.87,-1101.7,-1489.2,-1266.4,-603.75,148.11,1382.9,1842.4,479.98,-1408.8,-1964.4,-1205.2,-606.66,-629.81,-838.5,-708.47,-629.37,-613.07,-808.22,-1459.8,-1638.1,-1438.1,-1362.7,-1457.9,-1163.5,-221.85,-377.97,-666.58,-270.02,-220.46,-1142.6,-3227.4,-6269.3,-7915.3,-6278.4,-1188.2,3089.1,3346.7,2569.2,2593.7,2125.3,300.97,-1625.3,-2099.1,-1680.1,-1800.8,-2502.7,-4168.2,-4929.4,-2608.7,494.66,1378.4,144.58,-636.72,-488.04,-1900.1,-4799,-6949.9,-6406.3,-2930.1,-132.71,-520.5,-1676.6,-2562.5,-3063,-1980.1,-418.03,-60.304,-1052.4,-2577.6,-2833.8,-1315.1,171.56,-149.89,-2380.4,-4387.3,-5481.2,-6589.4,-5601.3,-3035,-1856.4,-1699,-1301.2,-2171.2,-4366.3,-6531.8,-7187.2,-5500.7,-3293.5,-1762.1,537.06,3376.8,2978.7,412.63,-741.44,-2018.5,-5228.7,-6740.5,-4060.8,-934.9,1063.5,802.12,-844.68,-1780,-785.86,1067.5,1935.1,578.65,-1979.7,-3298.7,-2159.6,622.73,1598.8,-1075.7,-3672.1,-4527.9,-3705.9,-3084.8,-4614.9,-6529.4,-6004.5,-2038,2900,4692.2,2384,-181.39,-1153,-1189.8,-773.8,-702.25,-1140.9,-1195.3,-56.992,920.14,575.63,-510.68,-1833.5,-1421.3,998.37,2757.2,2266.7,851.1,-395.54,-780.5,444.38,1502.6,1407.6,1238.8,2005.1,3199.2,3627.2,2466.2,551.84,-1165.1,-1975.9,-835.06,-995.51,-6239,-12650,-14243,-10066,-1131.6,5345.9,4359.7,713.19,-1783.8,-1739.2,598.7,1821,717.53,594.14,2442.2,4561.8,5239.1,3403.1,-729.9,-3217.8,-1930.3,146.24,-1134.2,-6010.9,-7121.1,-1042.8,6539.1,8084.3,5438,344.22,-1572,-1004.2,-1407.8,-3396.4,-8616.7,-14268,-13810,-11225,-7987.1,-2980.5,162.39,-952.28,773.48,4829,520.13,-10888,-22184,-29616,-33420,-31970,-11444,15013,29143,20607,2422.4,-3100.2,60.204,2987.3,-10904,-26161,-19579,7332.5,20702,15208,-355.35,-16620,-11268,7471.9,17128,15810,13295,11047,7909,2411.5,-828.87,1990.5,6469.6,6906.3,3859.6,1306.8,3352.1,5457.5,30.198,-7373.5,-6142.2,1654.9,2755.4,155.12,1502.1,-695.42,-3112.7,-4023.3,-5765,-3822.1,-4727.9,-11060,-9243.3,-4072.7,-3186.6,-3120.6,-1304.9,600.86,1614,2539.8,-10536,-31697,-26702,-2858.6,7266.1,5413.6,7893.1,10501,6425.4,2480.4,4390.6,14933,21876,17999,8760.9,-1466.9,-11499,-11864,-3698.1,3324.7,5655.3,-47.052,-4776.7,-3735.9,5020.5,9148.2,8412.8,6749.6,3011.6,599.22,3039.1,3526.9,4016.3,8344.8,11396,10398,8496.1,6412.8,-1036,-14328,-30085,-35512,-30197,-16637,-1338.4,151.21,-14900,-23700,-12601,-1446.6,-4997.5,-45.093,13292,19779,7631.8,-15842,-23354,-2425.1,20402,23678,13867,314.06,-23558,-47435,-39017,-5843.7,7101.5,3083.9,4880.6,6989.1,-623.19,-5797.1,-2121.5,-1694.5,-5793.9,-6860.8,-5932.2,25.262,6559.4,3597.4,-1417.4,-8699.2,-17419,-16306,-7502.4,-5121.7,-7007.6,-6522.6,-4035.5,3522.4,8855.3,3568.8,-8477.1,-10005,2426.8,10220,6642.7,1002.2,-2648.4,-2252.8,-1393.1,-727.12,1282.6,999.44,142.41,41.432,-1496.2,-3157.1,-3603,-2871.6,-2025.3,-1430.4,-3056.9,-4112.8,-2858.7,3940.2,7695.6,3100.4,-3635.4,-6666.1,-5411.9,-431.02,2210.1,2675.9,906.15,-774.78,686.4,4085.5,8490.4,10385,7773.1,3655.4,864.6,185.09,-3130.1,-7061.2,-3283.5,3595.8,6823.7,9310.9,8757.7,5514.1,2119.4,422.71,1595.3,4133.5,5048.7,2488.8,-1763.7,-2269.2,-1719.8,-1751.1,-998.97,-2926.5,-8560.2,-6901.8,-1761.1,-552.84,890.22,-2089.2,-6835,-6547.4,-999.43,3215.1,2381.6,593.4,-1945.9,-9977,-15429,-6965.7,3732.5,3906.9,2116.2,3495.9,3582.3,2058.1,929.49,-1689.1,-131.46,3654.9,2724.9,-301.46,-1715.2,-2588.7,-1598.6,-1658,-3900,-3427,1528.5,3648.6,168.31,-2404.3,-5797,-7224.9,-1101.3,2744.1,3443.5,4601.5,3164.4,-1461.6,-4692.2,-4135.8,-3187.5,-530.96,2615.6,2838,1154.1,-578.34,-856.87,371.02,-1790,-3241.6,-3098.7,-3317.3,-3122.7,-1845.1,1047.2,975.51,-4962.5,-7655.5,-6960.8,-4579.8,-1696.6,-210.79,-1231.6,-2603.4,-2959.5,-3198.7,-2796.2,-2580.2,-4059.2,-3858.7,-3092.2,-1711,199.35,-1294.9,-8182.6,-13768,-13920,-12035,-8616.8,-6799.6,-4122.2,-15.092,702.74,-1768.4,-3856.6,-4745.7,-3229.6,-1285.7,-1666.5,-2802.6,-747.97,974.7,-1893.7,-4873.3,-3542.6,-212.28,-943.9,-2304.1,-1180.4,806.7,3213.7,2477.5,-2143.9,-3121.6,255.33,3242.7,4388.7,1544.7,-1851.3,-4010.3,-3947.9,-1482.6,813.36,870.99,-574.95,-446.36,324.68,-674.31,-327.93,382.26,-104.17,305,2556.8,4417.3,4142.9,284.61,-2216.1,-1456.1,-1057,-2546.1,-5873.5,-8227.8,-6887.1,-1568.5,2204,1622,881.8,2433,2858.5,2043,1170.4,-327.15,-2006.7,-4207.2,-5384.9,-3538.8,-561.52,-255.57,-3714.8,-7940.9,-7810.5,-4708.8,-1831.5,-1057.5,-1259.8,1396.6,4464.8,4275.4,3414.6,2828.2,3080.1,2593.4,266.11,-3032.8,-5644.8,-5095,-3875.4,-3976.2,-4237.5,-1302.5,1966.5,2529.8,486.05,-2351.2,-2539.8,349.81,2320.7,1555.2,-580.7,-1384.7,-82.756,881.93,-833.77,-3442.8,-4547.9,-3642,-2126.6,-953.99,869.9,2880.9,3617.3,3993.2,2598.8,-887.83,-2259,-4387.1,-3027.6,-1092.6,-2307.6,-2109.2,-222.51,10.481,575.22,854.81,-1932.8,-5430.4,-8286.4,-9208.1,-5937.2,1154,3990,2536.1,2839.2,3545.4,2049.7,136.64,-1120.3,-1878,-1508.3,-134.44,-169.97,-2655.1,-4436.5,-3310.2,-500.49,-138.44,-1308.6,-1533.3,-1443.1,-1970.6,-2970.8,-2113.4,-1051,-1862.1,-3374.8,-2849.3,-1590.3,-2392.8,-2897.9,-1882.7,-55.251,-1335.7,-2752.8,-506.43,-246.82,-2044.9,-1014,-882.03,-813.51,-1610,-3033.7,-3837.2,-4008.4,-4099.6,-4930.9,-4789.4,-2664.2,-395.66,-159.28,-1425.8,-2711.9,-1065.7,2089.6,3714.6,2169.9,-1160.8,-1986.5,-1222.1,-1140.2,-1872.7,-1260.5,970.17,155.42,-1244.8,-607.28,-686.49,-272.89,-930.54,-606.59,692.33,1110.2,977.47,570.76,188.97,70.396,-65.195,-1352.9,-3875.8,-5931.2,-7417.4,-6343.5,-3699.5,-891.99,823.15,818.31,324.92,-1234.1,-2390.9,-356.87,589.19,-876.68,-1606.7,-1165.5,-1400.2,-1281.4,175.34,988.59,270.65,-440.81,-2634.3,-5804.8,-6533.5,-5783.4,-2527.8,-38.603,-1150.5,-2246.1,-675.61,1793.1,2096.7,811.31,-975.51,-2425.8,-2606.9,-2573.3,-2454.3,-2661.4,-2514.6,-1924.8,-2551.6,-2460.5,-381.49,1068.9,60.749,-881.92,100,2286.8,2096.2,899.71,360.22,-1003.4,-1512.2,-1664.4,-2633.4,-3434.7,-2501.4,13.809,681.47,-581.67,-669.75,-1961.6,-4314.5,-5008.8,-5732.3,-4154.6,842.27,1818.1,1324.6,1567.3,491.25,-1878.8,-3003.3,-2006.6,-937.44,-1141.8,-1023.6,-1045.6,-1541.3,-1441.8,-1244.6,-2079.7,-3667.9,-4971.1,-3773.1,-1611.2,-923.39,-1545,-603.53,-661.02,-1541.7,-1489.3,-1521.8,-2169.1,-2275,-654.19,97.808,-484.03,-991.81,-1727.5,-2208.6,-2514.5,-2016.9,-2768.8,-4117.8,-4302.1,-5329.3,-4754.5,-3585.2,-1893,98.508,2064.5,3395.2,1179.9,-2166.3,-3618.3,-3775.3,-2974.4,-2654.7,-3436.2,-1230.1,1096.2,-547.12,-1424.4,-2481.9,-2811.6,-1651.4,-3217.2,-4328.1,-4756.5,-4434.5,-2633.2,-1773.8,-1780,-2027.8,-3799.3,-4067.5,523.75,3826.9,3623.9,2726,1420.1,-106.05,-659.3,-1387.2,-1542.8,-942.88,-1385.2,-1223.4,-542.46,-48.716,516.86,143.9,296.51,1494.8,1157.4,332.55,-167.23,-544.97,-1470.9,-3453.7,-3337.7,-2046.2,-1907.3,-2285.5,-1789.2,-789.8,1588,4256.7,3812.6,721.61,-1323.1,-2248.2,-2953.1,-4450.5,-4454.6,147.55,3221.1,3042.3,2363.5,1631.5,1415.1,755.1,113.43,-86.625,-747.31,-2039.4,-2786.6,-2120.6,-612.1,537.97,733.09,695.19,546.7,-1151.5,-2176.8,-1237.9,-1872.2,-2278.6,-899.95,554.06,688.61,-697.88,-2076,-2918,-3497.9,-2653.2,-1302.8,-196.85,295.31,881.76,1009.2,-803.48,-2257.9,-452.78,2257.3,2931,1561.9,-62.829,-1447.2,-2555.9,-2911.2,-1718.4,-93.848,534.35,1332.2,1678,657.79,-1208.6,-2025.8,-2971.4,-2887.7,-1253.2,-1752.7,-4299.8,-3097.5,593.97,608.62,-2357.6,-4474.2,-5056.7,-5820.4,-7685.2,-9106.7,-8023.4,-4041.6,-883.35,550.02,2595,4251.4,3226.5,1585.9,288.06,-1366.4,-2823.1,-3434.3,-3416.4,-3256,-4033.2,-3795.9,-732.05,1785.9,707.87,-984.04,-1023.1,-1457.7,-2398.3,-2866.9,-2947.5,-1901.6,-1067.9,-2528.2,-1948,-611.32,-1061.6,-1634.5,-2085.2,-2289.7,-2920.8,-3892.9,-3985.1,-2984.1,-2548.4,-3640.5,-4277.8,-3994.1,-2126,462.55,408.68,-1554.4,-3170.7,-4240.7,-4537.4,-3539,-3016.4,-3419.2,-3382.6,-3020.9,-2906.3,-2028.5,-399.41,-614.62,-2865.7,-4002.1,-1616,1143.3,423.96,-799.25,-1431.2,-2030,-1944.1,-1921.8,-3276.2,-3302.1,-1622.6,-2084.5,-4138,-4766.6,-3616.9,-3130.6,-3574.5,-3059.6,-2432.2,-2429.7,-2128.3,-2687.4,-1305.8,1423.1,1833.5,517.59,-754.65,-1260.1,-1516.3,-2330.9,-2803.8,-2113.9,-1133.4,-341.22,-80.713,116.77,-144.24,-359.81,301.49,394.22,-313.15,-815.96,-579.41,-1500,-919.93,-273.86,-189.75,-1403.5,-2382.1,-1398.2,-1354.1,-2067.1,-2681.3,-2286.3,-1401.3,-241.87,1242.7,945.14,816.76,2147.9,2141.3,679.73,-212.06,338.41,632.41,173.88,-348.06,-380.63,549.39,1122.9,1027.9,918.74,589.21,-316.51,-1182.9,-1957.3,-2141.6,-1766.7,-2141.8,-3573.2,-4992.6,-5501.1,-4589.6,-3053,643.68,3958.9,4926.5,4165.4,2027.7,1014.2,1355,1636.8,1769.6,965.89,153.29,-109.21,-619.58,-1029.2,-1794.9,-1927.1,-1338.1,-581.96,540.57,1508.1,2792.8,2599.3,1116.4,395.16,411.95,549.97,559.4,139.43,-142.82,259.44,378.73,269.37,480.63,284.13,-64.824,345.64,838.78,666.24,119.97,-361.84,-405.35,14.225,167.18,-231.76,-871.14,-1126.4,-987.26,-1031.6,-1483.5,-2015.5,-2126.1,-1172.6,315.3,820.36,224.39,-1729.3,-1528,-1354.3,-1249.1,-775.87,-393.92,-680.87,-1101.5,-1295.9,-1331.3,-1418,-1437.9,-1246.3,-1349.6,-1781.1,-1976.6,-1603.9,-1102.8,-781.52,-695.66,-543.88,-424.9,-514.18,-861.33,-1139.7,-1338.8,-1272.7,-966.15,-903.77,-1016.5,-1381.6,-1611.3,-1598,-1505.1,-1296.4,-1056.2,-865.17,-540.77,-276.73,-319.25,-886.55,-1517.4,-2075.1,-2122.9,-2021.2,-1869.3,-1746.5,-1815.9,-1922.3,-1922.6,-1852.5,-1894.1,-1890.3,-1640.4,-1247.8,-1084.6,-1189.6,-1307.6,-1814.8,-2130.8,-1879.8,-1615.5,-1627.6,-1603.2,-1609.1,-1885.2,-1987.2,-1723.6,-1352.5,-824.18,-339.43,-231.76,-646.42,-1058.8,-1449.1,-2216.5,-2407.5,-2157.2,-1786.2,-1414.9,-1048.6,-866.51,-998.45,-967.1,-1094.4,-1463.2,-1674.8,-1656.4,-1840.8,-1805.3,-781.79,-703.76,-1522.2,-1577.9,-733.11,-104.56,-240.34,-633.98,-1042.1,-1391.4,-1646.4,-1525.7,-1083.2,-733.37,-496.95,6.5713,115.28,-795.11,-1704.3,-2084.4,-2011,-1694.2,-1435.1,-1333.3,-1367.8,-1555.1,-1534,-1340.4,-902.26,-700.83,-647.78,-706.32,-1038.1,-1443.6,-2029.2,-2600.5,-2861.9,-2426.6,-1593.9,-1195.5,-1333.3,-1620.6,-1737,-2063.4,-2347.8,-1943.5,-1328.7,-755.96,-436.3,-227.85,-949.49,-1905.4,-2280.7,-2222.3,-1989.4,-1705.8,-1463.3,-1215.2,-1219,-1430.4,-1429.5,-1272.2,-1222.5,-1017.1,-683.74,-714.71,-1124,-1635.1,-2249.3,-2463.2,-2309.4,-1759.8,-1029,-791.58,-947.91,-1108.4,-1320.8,-1211,-791.89,-250.91,209.8,284.48,-45.797,-387.72,-1101.3,-1879.9,-2017.6,-1675.6,-1215.6,-978.3,-872.36,-636.85,-734.89,-937.01,-704.96,-595.98,-620.85,-400.33,-590.32,-1215,-1901.7,-2339.5,-2809.3,-3117.4,-2760.2,-1671.2,-183.78,555.52,406.92,246.23,-328.94,-785.83,-984.1,-967.64,-926.95,-1182.1,-1395.1,-1486,-1959.7,-2129.3,-2019.7,-1610.7,-989.05,-547.55,-278.15,-329.48,-514.63,-1126.1,-2273.9,-3447.2,-4230.6,-4609.2,-4926.1,-3400.2,52.729,2573.3,1984.2,267.73,-1070.8,-2015.5,-2387.2,-2464.5,-2162.8,-1252.1,-158.46,1113.5,1323.2,189.19,-594.81,-757.58,-770.23,-554.31,-92.79,156.95,-15.611,-202.09,-8.5697,181.46,181.99,-47.951,-511.95,-1030.9,-1352.2,-1713.5,-1520.3,-1093.8,-810.49,-1031.5,-1542.8,-1598.2,-1672.8,-1880.5,-1714.2,-1039.9,-698.31,-976.52,-1322.4,-2164.9,-3366.9,-3970.2,-3426.1,-3459.9,-4364.9,-4731,-4811.1,-5445.3,-5463.5,-4131.9,-2436.2,-1643.8,-1532.3,-1732.9,-1086.4,-242.27,694.02,1529.2,1255.8,488.6,-817.48,-2433.2,-3398.8,-3415.9,-2627.8,-2225.4,-2074.4,-1899.1,-1384.9,-1510.5,-1901,-2129.1,-1441.1,-179.77,-13.579,-829.62,-1321.9,-1110.6,-979.22,-107.62,775.86,724.41,909.71,1480.5,1684.8,1478.1,1146.7,795.35,441.46,-633.77,-1811.3,-3038.5,-3123.4,-2092.8,-1744.5,-2629.9,-3014.5,-3746.2,-5785.4,-7782.7,-7168.5,-4102.5,1756.4,8761.2,9682.1,5160.5,887.79,-1452.6,-2709.5,-2756.3,-2629.6,-1686.3,1200.9,3904.4,3917.6,2556.9,2408.9,2891.2,2285.9,962.29,-151.8,-986.04,-2761.8,-4721.4,-5821.5,-6036.5,-6160.8,-5989.9,-3892,-794.77,1851.1,3185.1,3225.5,1914.6,-419.18,-1467.1,-895.41,-34.944,532.57,-289.08,-3535.7,-7901.7,-11758,-13498,-11238,-6904.3,-1151.2,6093.4,7319.4,-990.29,-10473,-15123,-15257,-13253,-10581,-7656.2,-6197.5,-4793.1,-2887.6,48.254,1660.5,400.45,-1528.4,-3932.4,-4856.1,-2710.3,2857.8,8203,8442.3,3734.1,1810.2,3636.8,5218.7,2522.9,-398.39,-978.39,-770.71,249.82,488.58,-1245.3,-3109.7,-3442.4,-2772.8,-1931,-2728.7,-2690.1,-3019.4,-3685.9,-2047.8,525.26,2121.4,3417.5,5212.7,6975.6,5958.2,3708.9,3077.7,4236.9,6430.8,6142.7,3705.6,-170.23,-3540.9,-3532.3,-774.59,222.98,-1699.3,-2343.2,-1364,578.15,677.91,29.705,857.1,2333.2,4233,5776.3,5658.2,4492.2,1288.5,-6636,-15916,-19565,-16454,-9200.5,-647.56,6813.4,10057,6966.9,908.75,-3635.5,-4756,-4044.6,-5957.2,-7439.2,-6129.6,-5088.7,-635.68,10097,14851,11625,5240.2,45.614,-3105.8,-4274.8,-3886.9,-3281.6,-3645,-1892.7,1517.8,3365.5,2478.9,-1111.3,-6920.7,-13651,-17654,-15801,-8660.8,-1468.5,1687.1,-606.9,-552.14,3506.5,4987.6,-1153.8,-9993.6,-13325,-12250,-8393.4,-5716.6,-7217.6,-7953.9,-2496.3,5241.4,10866,13504,10237,2250.9,-3022.7,-4492.4,-3716.1,-4354.7,-5943.9,-5241.8,-2075,493.77,1113,2763.6,-60.664,-7599.7,-10396,-10717,-11522,-6836.9,1326.5,7583.5,13647,16282,15735,10916,1828.1,-7808.1,-13636,-12050,-6244.8,-1189.4,910.99,-1481.3,-3691.5,-4893,-7639.6,-12257,-16977,-17962,-14263,-8501.2,-6107.5,210.53,11409,12891,6574.6,6861.1,9363.9,9497.2,6891.9,1399.8,-3237.4,-3560.3,-1884.2,-3689.4,-8135.1,-10437,-9630.5,-4358,5101.2,15576,19319,9782.8,-5589.4,-13820,-13328,-6780.7,4775.9,11304,8840.1,4010.7,-37.304,-3630.9,-7351.9,-9808.3,-8799.9,-4201.9,4806.9,11736,11904,6955.4,-940.55,-6764.7,-9477.6,-9789.9,-6106.1,558.61,2749.3,3485.9,4773.8,2582.9,-7628.1,-17898,-23219,-23545,-12375,6042.4,9836,7483.2,6796.7,8532.6,7586.5,2450,-3478,-6894,-6931.5,-4192,1131.4,9796.9,16086,15230,7428.7,-143.95,-4730.9,-7000.8,-7318.9,-6884.2,-6034.5,-5786.1,-5071,-2279.8,562.94,525.44,2971.4,7855,6415.3,-439.78,-4999.5,-6281.7,-3130.6,2994.8,5262.5,2524.8,-1002.1,-2150.9,-1225,213.19,236.54,-1822,-5579.4,-11204,-17935,-19720,-15968,-10685,9.6165,12577,13835,4564.8,-4218.5,-6187.5,-4466.8,-4044.8,-1264.8,7181.6,12094,7620,-184.75,-4616,-5611.4,-5704.9,-5443,-8554.3,-11086,-2177.5,9042.9,8171.7,2170.5,39.916,-260.24,-743.12,-1506.8,-3372.9,-7773.8,-12187,-12462,-10261,-4739.5,9100.2,16328,8237.3,-359.33,-3555.2,-4264.3,-4766,-3585.5,-1164.3,1439.2,2240.8,1967.6,3019.7,4501,5356.1,4192.4,982.32,-2756.5,-4508.4,-5038.7,-5403.8,-4206.3,-4337.5,-6253,-8213.3,-11258,-13402,-12440,-6757.2,2714.2,11934,14192,9928.8,2952.5,-3890.3,-8446.1,-7965.7,-5056.7,-3560.2,-308.27,3316.7,3278.4,2226.5,472.09,-1823.2,-1029,2808.6,5973.6,8226,5184,-1438.2,-6057.6,-7413.3,-6718.2,-2753.8,267.14,-2884.8,-10063,-13757,-14653,-13180,-1654.9,14892,15405,3627.2,-6824,-12895,-13598,-7822.4,-334.49,2034.3,-1734.7,-5112.5,-107.89,4643.1,6696.5,7126.3,3902.2,5.1856,-2201.6,-4009.4,-3123,-2003.7,-3463.9,-1982.2,465.48,-9.4904,-2790.4,-4354.9,-3650.4,-1733.1,2593.6,6517,6200.6,3985.8,2248.1,337.16,-804.99,-481.93,-948.31,-2464.5,-4941.2,-8366.7,-10239,-11899,-13614,-7721.1,971.55,1474.5,2723.4,7016.2,6024.9,2631.8,1039.2,1188.2,1932.9,1399.6,-478.5,-1908.8,-1288.5,1010.1,3087.1,2998,1698,204,-2141.2,-3569.5,-2358.6,-1842.7,-2196.7,-2275,-2378.1,-1781.7,735.4,2402.4,2221.3,1500.9,164.74,-654.76,-14.188,859.62,-209.59,-3594.2,-7487.5,-9787.5,-9107.2,-5055.2,-858.32,1088.7,1220,-337.46,-2318.9,-4343.2,-3817,331.63,1869,-345.56,-3070.5,-6286.4,-7014.9,-2759.3,-485.65,-3189.6,-4093.6,-2470.4,-3846.8,-8723.2,-13953,-11858,-8652,-4442.2,10013,23206,18128,7823.3,2639.6,33.781,-3048,-5136.4,-5306.6,-3831.6,1385.1,6397.9,5789.3,3005.5,835.84,-1173.1,-1496.9,-1543.8,-3227,-5196.8,-4509.3,-2529.2,-2423.3,-3558.9,-5362.3,-6229.9,-1169.5,6731.5,7971.2,3667.3,155.84,-685.22,129.42,1780.1,2121.5,12.771,-1277,-900.46,-518.66,-2216.3,-6384.3,-10461,-14864,-18108,-12689,-2812,1070.9,5954.3,13694,11312,4132.2,-3006,-11044,-15412,-14151,-9459.9,386.87,8537.5,11273,9053,3748.4,1130.1,961.55,1504.2,1701.6,789.7,-215.06,-1677.4,-3961.1,-7846.5,-11154,-11273,-8467,-21.986,10167,10014,1626.7,-5685.7,-9903.5,-11596,-7055.5,828.62,609.48,-3224,-3864.5,4.4909,4529.2,4168.6,2287.8,-1357.9,-5662.9,-10449,-17419,-16017,-6597.1,-4736.7,-4713.4,5311,3899.9,-9713.5,-12314,-5599.7,838.25,8933.7,21070,25567,16497,7258.8,2212.1,-1834.1,-5683.2,-7323,-6358.3,-3367.6,1387.4,4603.7,4871.1,3691,-525.19,-6677,-10825,-13429,-14002,-12065,-6330.3,2365,9297.5,10197,6852.4,4867.4,3546.5,1302.9,917.69,1929.8,1660.2,-1061.2,-4717.6,-6061.3,-6101.6,-6816.5,-6676.8,-6141.3,-4780.4,41.518,2357.5,-2709.2,-7506.1,-7967.3,-3784.7,4308.6,9548.3,11618,8263,1720.4,-2312.4,-2898,-999.82,69.429,-1201.3,-3021,-4482.5,-4648.3,-3325.2,-1042.1,-975.04,-4233.8,-6425.3,-6411,-7939.3,-8504.8,-2358.6,3706,5301.5,3303.7,-1261,-4888.3,-6301.3,-3971.8,1709.5,6053.6,6037.1,1858.9,-3004.3,-4241.3,-5056.4,-7659.1,-8100.3,-5118.4,-3359,-2002.2,1999.5,5216,4030.4,1196.4,-917.5,-3513.6,-6092.8,-8398.7,-13988,-16963,-12870,-6722.3,4174.6,14410,13641,7303.2,2571.4,3574.5,6085.1,3309,-1053.2,-1975.7,-46.379,972.33,-1889.3,-9578.5,-16629,-17506,-12704,-3106.7,10333,15324,10890,4640,110.91,-2983.9,-4799.9,-3909,-1249,1945.2,2680.9,12.349,-3629,-6565.7,-6018.7,-1249.3,2842.2,4898,4574,3760.1,3397.8,2754,620.78,-1499,-2499.4,-1895.8,-317.56,454.67,617.29,1026.6,1714.2,1904.7,-471.84,-3411.3,-5589.6,-7390.6,-7046.9,-5595.5,-4764.6,-1503.8,2564,1054.3,-2480.5,-4168.5,-4107.6,1120.3,6715.1,6916.8,3505.5,-1298.6,-5628.5,-7881.6,-7652.8,-4355.3,635.35,1808.7,-407.19,-1179.2,-729.03,-437.34,-1304.8,-3804.4,-6007,-6936.8,-7616,-6303.4,475.39,3943.9,-1857,-10783,-16883,-18236,-12217,1882.4,13639,14871,10295,5356.9,3447,3209.1,2371.8,674.43,-1449.5,-3785.4,-5896.8,-5493.7,-2449,196.54,1475.6,-2105.9,-5399.4,-5481.5,-7952.2,-10627,-8238,-2539,-393.75,2015,7186,7217.9,1306.8,-2253.2,-2979,-2332.1,-1735.4,-1454.5,1228.2,2245.5,-256.78,-1545.8,-1759.1,-2334.4,19.178,3309.8,2646.4,319.02,-2380.6,-4367.9,-4184.9,-2973.9,-966.22,1150.3,1774.8,108.32,-1952.6,-2769,-3129.8,-2795.4,190.8,1510.4,-921.33,-3617.4,-5175.2,-6618.1,-6556.4,-4403.2,-2500.3,-103.42,3132.7,2491.8,-2353.6,-3956.8,-2477.7,-174.85,2646.7,3885.7,3412.7,1785.8,-385.64,-2150.3,-3894.1,-5100.1,-6738.1,-9386,-9653.7,-7583.1,-5160.6,-1829.3,-1354.2,-5352.1,-9958.9,-7315.2,2410.1,9001.2,10402,6216.4,1213.9,1716,3329.3,3631.4,3004.5,1697,787.2,-110.63,-499.66,-196.74,-343.51,-818.26,-962.03,-602.23,-113.51,-659.88,-2787.2,-4732.3,-5334,-4687.5,-2757.5,-63.231,144.7,-1520.4,-2496.2,-2103.4,-1510.3,-3140.2,-6513.2,-6714.1,-3846,-3226.7,-4731,-5563.5,-5389.8,-2442.8,3216,8617.3,10495,8001.5,3541.1,399.33,-682.32,-424.27,-633.45,-1370.2,-1047.4,-690.7,-803.77,-835.62,-1256.4,-1326.8,-877.13,-2531.2,-4376.4,-5015.4,-5976.9,-4246.4,550.04,2791.1,3508.6,4524.4,3725.7,1465.7,-701.47,-1980.4,-2763,-3894.6,-4343.2,-3344.5,-2517.5,-3179.6,-6136.5,-10994,-15306,-16605,-14433,-5659.3,7194.5,11683,10627,5644.6,2234.8,-461.78,-3624.6,-4438,-2817.8,-432.73,2504.2,5081.5,4315.5,1100.8,-510.61,-354.71,1679.6,-925.18,-7526.1,-10945,-11739,-8456.1,3403,10880,8081.1,3836.1,1850.1,711.63,134.08,71.67,192.02,266.1,396.24,203.53,-804.79,-1647.6,-2035.5,-2799.3,-3385.9,-3153.1,-2092.4,-1165,-1054.1,-971.59,-1025.5,-1180.5,-771.07,-296.04,-229.08,-1030.1,-2357.3,-3085.9,-3410.1,-3686.5,-4520.5,-6094.8,-6097.9,-3578.7,-1441.9,-722.11,225.07,92.716,-720.51,-1020.5,-397.44,-390.8,-697.1,-1734.9,-2831.6,-2272.5,-776.81,-499.69,-1409.1,-2486.7,-3243.1,-3765,-4920.1,-5534.6,-4731.1,-3407.9,-321.58,3511.1,4038.6,1098.1,-1393,-1614.3,-687.3,-761.5,-1949.6,-3887.4,-4855.3,-3992.3,-2541.5,-49.566,1406.3,807.4,-202.45,-1430.5,-2216.4,-1887.5,-1035.6,-177.95,-33.915,-339.58,-420.67,-617.62,-837.43,-893.53,-826.34,-839.7,-823.35,-638.46,-984.88,-1485.4,-1306.5,-659.9,-188.61,-114.6,-244.39,-344.43,-388.51,-620.01,-642.43,-542.01,-678.41,-766.52,-786.54,-736.77,-837.51,-1011.2,-1069.6,-1046.4,-890.02,-350.83,72.227,-185.77,-1147.2,-1736.1,-1773.1,-1591.2,-856.76,-518.51,-560.38,-725.37,-880.23,-909.77,-918.24,-1157.6,-1273.7,-917.81,-564.43,-585.32,-915.67,-1086.7,-861.06,-829.4,-1028.8,-1094.2,-1410.9,-1423.8,-1069.8,-853.78,-1003.6,-1361.7,-1641.4,-1559.5,-1264,-1211.6,-1405.7,-1727.2,-1780.4,-1302,-924.85,-1240.3,-1586.6,-1643.3,-1455.5,-1082.1,-754.27,-703.49,-775.07,-923.47,-1375,-1582,-1140.9,-750.04,-1119.9,-1639.4,-2027.2,-2049.2,-1542.8,-1370.9,-1312.3,-1323.5,-1354.5,-1239.4,-1147.1,-1272.7,-2018.3,-3058,-2004,-534.92,-460.19,-991.84,-790.94,-718.89,-1135.9,-1527.6,-1640.7,-1463.4,-1134.1,-939.81,-950.84,-943.09,-1060.4,-1118.9,-1084.2,-1011.1,-892.04,-914.6,-993.12,-1318,-1753.7,-1308.7,-960.59,-1419.9,-1859.5,-1929.7,-1495.4,-1267.5,-1420.8,-1688.3,-1833.1,-1846.4,-1625.2,-1268.1,-1099.4,-884.59,-960.73,-1341.3,-1395.4,-1144.5,-770.45,-627.11,-1106.8,-1745.6,-2085.4,-2439.7,-2235.7,-2072.1,-2380.4,-2101.2,-1415.6,-828.47,-783.45,-1143.6,-1897,-2572.9,-2764.3,-2702,-2380.5,-1894.9,-1404.9,-957.37,-855.53,-1003,-928.33,-855.58,-521.29,-206.73,-357.39,-235.28,-294.99,-840.46,-1754.9,-2229.7,-2472.1,-1783.3,-919.23,-1184.1,-926.65,-64.506,-300.39,-543.19,-561.22,-1523,-2644.4,-2446.4,-418.28,687.83,236,-312.01,-777.94,-1372.5,-2500.1,-3108.5,-2540,-2333.8,-1977,-726.34,-497.48,-1634.6,-2765.3,-3529.5,-4348.1,-4211.2,-2608.1,-110.9,918.77,69.345,-738.35,-1011.9,-1380.7,-2446.4,-2814,-3355.2,-4404.2,-4579.8,-2440.2,-927.62,-1916.9,-2873.1,-3165.7,-3257.4,-2828.7,-2162.3,-1624.2,-1787,-1638.7,-832.56,-250.6,-744.59,-1176.1,-1958.2,-3044,-3457.1,-2613.3,-1628.7,-1378.7,-1623.9,-2230,-2531.5,-1940.1,-1294.8,-731.61,185.9,691.51,532,890.42,1899.6,2148.4,1617,1199.1,943.11,1068.7,1019.5,458.75,100.86,-41.384,-251.07,-431.04,-400.81,-5.5049,361.88,452.25,432.16,352.4,7.4799,-533.76,-498.98,118.71,245.76,106.48,122.24,-314.86,-952.74,-1714.1,-2044,-1674.8,-1088.2,-431.05,-58.209,-185.61,-850.01,-1362.7,-1518.2,-1421.5,-1260.3,-1170.3,-1259.6,-1283.7,-1423.4,-1623.4,-2034.6,-2268.9,-2050.4,-1679.9,-1210.6,-1182.7,-1030.2,-1034.3,-1347.4,-1558.4,-1520.2,-1159.7,-1034.5,-1328.4,-2052.7,-2918.4,-3306.4,-3148.2,-2607.1,-1818.2,-1024.3,-617.48,-694.27,-1181,-1639.6,-1666.3,-1509.6,-1223.4,-1022,-949.82,-959.06,-937.63,-1297.4,-1628.1,-1889.3,-1801.7,-1285.1,-514.48,-411.36,-828.24,-1484,-2163.9,-2083.7,-1872.4,-1455.9,-1271.2,-1261.8,-1240.3,-1635.6,-2368.8,-2679.3,-2687.4,-2667.7,-2243.8,-1994.6,-2280.9,-2893.6,-3651.2,-3864.8,-2903.7,-929.52,525.91,297.62,47.23,343.73,127.24,-349.66,-606.76,-1068.9,-1502.5,-1535.6,-1415.6,-1697.8,-1583.7,-1342.8,-1332.9,-1629.5,-1739.6,-1551.4,-1487.8,-1769,-1934.7,-1651.9,-1657.7,-1698.8,-1562.2,-1796.4,-1917.1,-1413.3,-1024.7,-1232.9,-1369.8,-1306.5,-1569.1,-1754.1,-1693.6,-1564.1,-1399.3,-1202,-1073.1,-1124.2,-1437.6,-1865.5,-1401.2,-866.77,-1007,-1233.7,-1612.2,-1810.3,-1740.2,-1768.9,-2097.4,-2528.5,-2742.4,-2295,-1626.8,-1244,-1298.8,-1425.3,-1241.7,-791.07,-548.67,-520.43,-623.2,-1169.5,-1661.2,-2218.1,-3109.5,-3700.2,-3386.6,-2736.4,-1872.6,-1508.3,-1444.9,-1918.1,-3507.3,-3871.4,-3319,-2682.5,-1819.1,-382.25,736.19,313.47,-836.03,-1078.2,-222.02,756.28,2371.9,4411.8,3944.7,282.85,-2193.1,-1281.7,-992.44,-1500.2,-1634.2,-1315.7,-1083.2,-988.64,-1902.9,-3523.3,-5192.1,-4772.2,-1988.2,1961.4,3993.5,2644.4,-212.49,-2170.8,-2862.7,-3461.2,-1666.2,438.11,227.05,-1098.8,1.7282,3841.7,3654.3,-2435.7,-7028.3,-8053.6,-6491.8,-3842.8,-16.767,2581.4,3405.1,2956.5,2429.1,1574.6,-582.6,-2652.6,-2918.2,-778.24,2806.5,6230.1,6933,3438.5,-1407.2,-2523.4,-499.14,976.45,591.75,128.9,991.09,1242,-1073.1,-2934.3,-3294.7,-6639,-9181.3,-8167.8,-5905.5,-1833.7,5641.2,9562.6,6419.7,1630.1,-3465.3,-8453.7,-11303,-11869,-6426.8,1293.5,6042.1,6104.8,2021.3,-86.662,-864.3,-7490.5,-13019,-14220,-14140,-11041,-3297.6,6634.8,10380,5709.1,-1170.8,-7606.3,-9840.1,-3664.4,1976.8,1885,2270.8,5686.8,5738.5,3543,4926.3,4117.5,791.18,-281.2,173.14,2344.1,3660.3,-2404.1,-5842.5,-3813,-7034.9,-10254,-7744.6,-3792,199.9,-781.78,-4289.8,-4616.5,-3101.6,-1314.5,4435.5,11949,10629,2238.2,-4330,-2922.2,-2572,-5372.4,-6780.2,-5757.2,-2256.8,1426.8,3144.5,794.21,-4758,-8726.9,-12248,-11618,-10039,-8855.3,-4945.5,-3884.2,-1751.3,5099.4,6808.7,7113.4,5896.6,1710,-710.37,-2072,-966.21,-1418.3,30.467,5413.5,9226.3,8576.2,4208.3,-6561.1,-12143,-6422.1,3766.7,5169.5,4700.5,-494.37,-15881,-20120,-5960.1,-469.21,-10719,-12450,-1880.9,5368.7,3652.8,1208.6,2236,-3532.9,-3044.7,-2608.4,-8223.7,-8430.4,-7971.7,-3165.5,5299,15078,4003.7,-11562,-4427.8,3814,433.48,-4948.7,-5702,-2465.6,-3479.8,-3881.7,0.80637,2258.5,1880.6,4341.2,3635.7,1524.2,835.68,1529.2,500.89,-6290.9,-14715,-20246,-18170,-5098.9,5454.3,8253.9,14033,12898,4512.3,-5622.2,-12712,-10060,-4490.1,16.946,13408,19939,6686.1,-6507.4,-5229.4,-1251.4,2807,5508.3,1564,-8875.9,-11651,-3919.6,5892.5,11060,11270,8560.7,200.86,-46.869,4214.4,-431.36,-6141,3123.1,7979.9,6327.7,233.29,-13959,-20698,-9687.5,3059.5,6618.6,5816.8,5055.2,8005.1,4327.3,-6387.1,-16961,-21480,-12114,1368.6,14587,18381,-2024.4,-19005,-17928,-1391.1,17798,12613,-605.74,-3939.9,-5132.6,-8996.3,-18732,-28131,-19080,-5308.5,-1898.9,-1294.4,6602.2,19149,16273,8232.4,13753,16359,12817,7339,-4989.9,-13925,-13004,-6409,361.69,340.61,-593.59,-639.93,287.45,4336.9,1491.9,-7348,-9643.4,-17280,-32922,-31905,-16539,-4783.2,6274.3,19940,23015,11916,4193.2,-8031.6,-11429,1831.3,2370.7,-1955.8,-508.77,409.17,-7037.2,-16367,-15005,-14666,-11853,-2833.6,2941,12813,20412,17940,6458,-1628.6,-1806.2,-2955.6,-3459.2,5712.5,13624,3604.5,-5456.2,-2327.6,-627.81,-7243.5,-14879,-5822.1,1662.9,-11248,-20145,-12613,-7914.2,-7091.8,4049.4,14313,11191,2111.3,-1007.7,9522.9,10249,-2943.2,-9599.4,-6529.9,-3061.6,-9533.1,-7076.1,3828.6,7231.2,-2203,-14002,-12678,-6848.9,-4413,-10159,-17153,-15253,-4999.2,7798.9,15220,17110,14490,4774.5,-4656.4,-2105.1,5390.2,3957.4,-960.07,-1846.7,-5198.9,-10121,-6718.5,6390.1,15179,3760.8,-9944.2,-11280,-8688.9,-3100.6,6100.5,10782,746.22,-16285,-16838,-4082.5,11278,13146,8093.4,2598.7,-2578,-4797.5,-2884.2,2519.5,5712.3,8548.7,10406,5541.6,1987.2,2182.5,28.149,-1761.1,-6495.1,-15442,-19521,-13935,-4672.4,3423.2,8446.2,6552.9,-1195.1,-5051.5,-7189.3,-7207.3,-4411.5,682.78,2334.1,-1070.8,-8599.9,-10070,-1307.4,5004.8,1384.5,1039.1,1748.4,303.67,1756.4,-2564.1,-9085.6,-3689.4,3787.7,3607.8,-588.23,-3539.8,1177.5,2996.9,-7041.2,-11770,-6584.9,1131.4,5217,6369.3,2916.9,643.66,4344.7,3123.1,1949.9,4332.4,5105.6,2749.8,-2725.8,-2937.7,1149.3,1368.9,-910.1,-4011.2,-6939.9,-1182.3,4521,-2102.4,-7962,-8612.9,-3936,-3194.2,-10061,-13258,-14555,-13702,-3431.7,8729.6,8505.4,-192.29,1124.4,7538.8,8263.6,6391.5,2202.8,-303.89,-3001.2,-4833.8,-238.41,-1594.3,-9064.9,-11761,-4603.1,4066,2886.9,-2856.5,-1056.5,-2133.6,-5568.7,-3249,-2552.9,3255.4,8260,580.09,-5654.5,-1948.4,2619.3,-290.76,38.208,3343.9,-196.22,-2394.1,-1979.3,-871.37,-2462.5,-7028.4,-12972,-13981,-5332.7,3036.7,6920.6,7880.7,3302,-3892.3,-4559.9,-2850,-5730.3,-8597.3,-6086.1,150.74,3469.2,1768.9,71.47,-4686,-8189,-7694.5,-12845,-20791,-19359,-7244.1,8906,14455,8058.4,2493.4,5499.1,5523.2,3131.1,1244.7,-2454.3,-1026.7,1605.7,1987.2,2324.6,3115.6,2819.7,562.24,-2214.2,-2615.4,-2919.5,-6210.8,-6770.3,-2409.7,983.86,612.67,-3704.7,-3885.1,-3792.5,-5147.2,6261,8623.8,-6513,-15611,-15658,-9992.6,-585.08,8011.1,9567,6414.4,2245.9,-4455.9,-7284.8,-2185.8,734.52,-1105.6,1194.9,7892.3,11916,9414.8,5208.8,3168.1,650.92,-1049.6,-2719.3,-2273.2,608.97,352.24,-513.56,-489.53,-6523.7,-10425,-5854.1,-2736.4,-2065.7,461.13,1713.5,2108,3077.1,339.26,-2690.4,110.79,2102.9,833.39,329.35,59.328,2188.4,3592.4,-2723.6,-11189,-12514,-9835.8,-12649,-13456,-4260.8,3761,7658,4072.3,-2508.3,-3601,-7634.9,-11763,-3641.6,7354.8,11129,4600.6,-3276.1,-3686,63.993,-2216.8,-6151.5,-4117.5,-3018.3,-7882.2,-10853,-5454.4,473.52,2911.3,4076,4437.6,2083.5,-293.39,-993.46,-181.48,4043.2,7793.7,5364.8,686.41,-2561.7,-2901.5,-5593,-6420.7,-900.08,1805.1,698.76,133.71,1932.9,584.62,-5830.9,-10542,-8913.3,-1514.9,4504.7,6211,3389.1,-235.52,122.77,3102.8,2799,-218.27,-2473.4,-4395.2,-5333.4,-3063.3,-1281.1,15.309,-1677.5,-6489.1,-9597.1,-11151,-8549.2,-681.98,7653.9,4746.3,-4512.9,-7494.7,-62.352,3212.5,-4576.9,-8893.6,-3818.7,289.49,-647.99,-2011.1,868.98,5280.9,7146.6,4858.9,1813.3,602.88,-497.56,-2409.7,-3216.9,-1837.1,-435.95,-536.72,-5147.9,-8561.6,-8707.7,-3848.4,1128.8,645.14,-10834,-19379,-10937,3818.8,8337.4,4202.1,1692.7,1414,2096,652.44,-2328.9,-1982.7,2255.3,2648.7,1360.9,-637.31,402.54,2425.4,441.94,-2468,-3407.2,-4143.1,-3991.4,-2721.2,-681.37,-797.77,-4509.4,-6904.8,-1287.7,4910.6,6362.1,3632.8,372.46,-2546.6,-1580.6,2224.5,1784.6,-2536.6,-3306.2,-3119,-4538.2,-1781,544.61,-3368.8,-7566.2,-7158,-4743.7,-3863.7,-9362.2,-8096,758.39,7523,5145.5,80.559,764.05,2605,237.05,-5002.4,-8252.4,-6618.6,-276.86,2899.1,4425,2094.2,-774.37,-470.02,-124.37,2133.4,3104.9,1575.1,-1246.6,-4349.3,-5139,-2740.8,592.64,15.583,-4173.2,-3884.3,-161.28,2041.9,1288.5,1152.6,383.08,-974.05,-2049.5,-1898,-1415.8,-2395.9,-2894.3,-2879.6,-3380.5,-2140.7,-1385.9,-2531.4,-1963.3,-4.1493,-597.81,-2325.8,-1460.5,710.9,1110.7,-53.831,-2250.9,-3402.8,-3714.4,-2757.3,-1246.1,-414.95,-196.13,-398.66,-678.76,-545.53,-277.83,-180.24,21.689,-137.25,-668.89,-1294.6,-2181.9,-3130.6,-3131,-2591,-256.23,2092.9,346.12,-967.15,-885.48,-650.43,-828.18,-914.94,125.58,1339.9,27.085,-2371.4,-3513.3,-4052.2,-4127.3,-3138.4,-2175.8,-1496.8,-793.39,-391.37,-157.77,-278.9,-851,-1620.6,-1615.9,-636.23,529.04,856.7,623.75,-1093.7,-3552.8,-4718.4,-3900.8,-2248.7,-2540.7,-2510.1,-887.56,899.28,1741.6,1526.8,1084.3,1470.5,923.92,-1421.9,-4544.9,-6541.9,-6153.3,-5957.8,-2369.7,3485.8,1978.7,-2820.4,-2435.1,-1479.9,-2021.2,-2529.4,-2034.3,-2459,-3784,-3018.2,-1334.7,-728.92,-1903.8,-2081.2,-2269.4,-3129.2,-2255.1,-1764.6,-1918.5,-1240.4,0.46491,305.51,-599.72,-1619,-2077.4,-2130.2,-1586.2,-1354.3,-1474.8,-1959.4,-1520.8,-288.37,-668.9,-1624.6,-1611.1,-1191.8,-422.57,-77.332,-416.07,-911.84,-1372.8,-2198.6,-2701.4,-2404.6,-2241.8,-2144.9,-2360.4,-3259.4,-3186.2,-973.76,121.27,305.89,-114.75,-592.2,-22.739,-656.45,-1507.2,-1453.9,-975.4,-1084.5,-1469,-1764.3,-1436.9,-1020.5,-678.79,-768.29,-1445.2,-2057.2,-2068.4,-1656.7,-1015.7,-876,-1310.6,-1606.5,-1681.7,-1690.6,-1672.6,-1960.6,-2106.1,-1566.1,-599.63,85.295,442.61,11.061,-1045.2,-1996.1,-2907.5,-3435.8,-3187.9,-2895.3,-2174,-689.45,595.66,406.26,-780.56,-942.29,-1300.3,-1990.8,-2560.7,-3539.7,-3148.6,-2168,-1372.8,-687.37,-1246.2,-1909.7,-1823.8,-1334.1,-1107.8,-1806.1,-2503.3,-2513.6,-1466.1,-90.309,138.02,-1067,-2237.1,-2084.7,-1173.5,-363.48,-256.61,-671.34,-1048,-1687.2,-2080.2,-1846.5,-2109.4,-2619.9,-2482.5,-1699.2,-916.83,-774.73,-1237.6,-2056.9,-2336.9,-1781.3,-860.05,-783.95,-1182.9,-1941.8,-2474.5,-2525.5,-2959.9,-2692.2,-1689.3,-1501.9,-2249.8,-2423.1,-540.92,1586,754.07,-780.64,-640.96,-553.46,-1522.4,-2930.3,-2925.4,-1069.5,1409.9,1849.3,477.07,-828.05,-1802,-3102.3,-4580.1,-4979.6,-4796.5,-2764.5,628.46,2060.9,1348.6,630.08,491.62,814.41,1652.4,1789.1,839.08,-939,-1316,-208.79,354.52,236.78,-45.079,-725.86,-966.79,-796.62,-1105.6,-1460.3,-1369.1,-893.27,-173.02,-554.57,-1248.5,-1476.1,-979.35,904.38,816.75,-936.8,-969.26,-800.57,-668.74,-732.77,-1237,-1502.9,-948.73,-1050.5,-939.69,-649.44,-1213.2,-1692.5,-1409.9,-1361.5,-1272.7,-798.02,-620.89,-885.79,-834.33,-961.9,-1564.7,-2107.8,-2444.6,-2977.3,-2784.2,-1735.4,-955.92,-1214.9,-1546.6,-1948.1,-2251,-2172.4,-1832.8,-1497.4,-1229.1,-743.67,-530.35,-759.88,-1232,-1588.4,-1985.1,-1786.4,-1148.2,-1271.7,-2098.2,-2984.6,-3603.5,-3787.8,-2975.1,-1651,-664.93,-265.87,-441.15,-787.51,-1388.5,-2057.6,-2007.4,-1694.8,-1398.3,-1294.6,-1518.8,-1490.1,-1998.1,-3058.5,-3657.9,-3390.1,-2545,-1666.1,-966.88,-535.38,-648.28,-1569,-2459.6,-2424.1,-1947.9,-1380.9,-1164.2,-1353.1,-1665.9,-2298.5,-2458.2,-1557.8,-816.94,-144.04,-280.56,-790.14,-777.39,-660.16,-1118.7,-2230.6,-2769.5,-3256.9,-2790.2,-2204.7,-2250.4,-2195.6,-1932,-1170.2,-289.11,-258.54,-143.82,1295.8,987.97,-1750.3,-3391.3,-3381.6,-2895,-2005.5,-1461.5,-1512,-1649.6,-1727.4,-1897.1,-2177.4,-2327.3,-2483,-2749,-2506.8,-1232,-184.23,-212.42,-352.36,-831.28,-934.1,-1190.6,-2058.5,-2180.6,-1330.1,-923.41,-1175,-1992.5,-2415.8,-2030,-1398.1,-264.84,2032.8,1809.1,-55.911,-843.49,-1311.7,-1794.4,-1047,-32.677,410.51,436.67,800.3,1181.4,1127.5,335.51,-1751.5,-3206,-1914.8,-414.81,-33.167,-216.01,-1202.3,-1869,-1625.1,-2116.9,-1709.2,665.3,2443.8,2117.4,574.08,-1272.4,-2614.7,-3721.5,-3646.4,-2846.7,-1464.7,454.85,858.64,355.78,307.22,900.56,1149.6,838.21,736.69,960.23,909.18,597.2,-44.795,-1538.5,-2417.9,-2718.2,-2543,-2226,-1989.2,-1970.9,-1589.7,-2235.7,-2229.7,-236.24,1074.5,-1640.4,-5677.2,-6133.2,-7539.1,-10101,-8411.7,1166.4,11539,13246,9125.8,5053.5,1011.2,-1106.4,-2955.1,-6083.9,-7013.4,-3238.5,1408.1,2605.9,1487.6,736.94,-140.94,-824.31,484.46,1833.2,-407.76,-4889.7,-7391.7,-7767.7,-6504.3,-3261.3,-2900.4,-4353.9,-5087,-6520.4,-7988.8,-4415.2,-1052,-1892.1,-4010.8,-4041.2,-4857.8,-5408.5,-1252.9,2811.7,4829.4,5068.6,5195.1,5365,3136.4,519.8,108.04,2090.1,7422,6930.5,455.21,-5798,-9087.6,-13233,-16750,-14333,-6800,624.59,1259.4,-4947,-8658.9,-11834,-14330,-9154.3,2499.5,7863.5,6625.8,-467.62,-4823.5,512.55,3261.6,247.49,2622.3,4802.7,4700.6,2463.9,168.99,2414.9,2108,2696.9,5461.2,5527,1922.9,-3877.9,-7172.2,-9646.7,-14407,-14847,-10307,-5043.7,7592.8,16823,8891.9,-2773.1,-8597.3,-10077,-6988.9,-3648.2,-4853.4,-6229.7,-4198.6,-98.334,2302.7,-1089.5,-2898.1,-250.77,-55.532,-5449.1,-10716,-5532.8,1239.9,5339.6,4865.8,175.18,-101.96,3759.5,1053.2,-1351.6,1525.8,4309.2,4671.3,6762.1,6519.5,1539,-1524.9,456.19,257.92,-2900.4,-1526.8,-512.35,-725.57,-1093.3,227.58,2139.7,2968.1,2622.7,527.71,-2497.1,-4649.3,-6098.9,-6485.7,-7021.8,-9285.9,-9833.8,-5998.2,3844.5,12975,14770,9498.1,3447.4,367.34,39.347,991.57,825.03,-27.841,539.15,1922.1,2260.9,1854.1,1983.6,2897.1,3723.5,-50.515,-9871.2,-19362,-20914,-10463,-584.81,-295.4,-3242,-3817.4,-753.48,3791.9,3973.6,-756.92,-7574.7,-8919.4,-726.63,-2842.8,-25279,-35580,-18141,2607.9,5609.9,799.2,-5287.8,-5935.9,-1474.1,2144.2,2295.1,8368.4,17152,15952,1626.2,-7179.8,-3130.7,8468.5,16027,13149,6594.1,837.53,-3535.4,-4640.2,-5774.7,-4546.1,-5086.4,-5796.3,-7725.6,-8285.3,-4481.2,1248.3,3958.7,5925.3,10009,8372.9,3703,-2321.1,-3672.5,-1101.3,2584.7,871.86,2842.2,5644.9,2668.8,-959.75,-3221.2,-6788.2,-11001,-17718,-19392,-7283.7,2998.4,715.71,-1795.4,-2592.5,-1007.2,-2918.1,-10047,-15718,-22479,-27787,-15401,7670.3,24223,28008,25132,15248,1724.3,-9489.3,-16632,-18664,-14207,228.32,4475.5,2264,2283.3,-2650.5,-12954,-24846,-17340,4720.9,11811,1088,-20316,-28785,-6579.3,23589,31740,16984,8716.8,5583.3,5165.6,3491.6,2089.3,1401.1,-6485.3,-15564,-17456,387.43,20529,15782,1074.2,1051.4,-3651.9,-3992.1,3692.3,646.6,-91.52,607.7,-1708.5,-1003.5,1352.4,3610.8,8247.8,303.79,-4416.2,397.9,4436,3840.8,1793.7,-4435.6,-9339.8,-17986,-20714,-6025.5,8770.6,5287.9,-5358.5,-12490,-6507.3,6571.6,11088,10584,6203.6,-17325,-47822,-46442,-13449,14591,20751,19242,11883,1415.6,-5870.2,-10835,-3716.6,2210.6,-680.37,-3621.1,-1010.8,2158.9,-1418.5,-8605,-1092.1,12396,11138,4746.6,-470.1,-7085.8,-9571.6,-6295.6,-533.04,-3166.4,-14073,-23081,-26099,-11276,12701,24355,18976,5892.8,-2924.6,-10442,-19421,-18190,-4028.4,8942.4,15708,18541,10889,9185.5,9039.4,1944.5,-4043.8,-5420.3,318.17,3198.8,-1117.8,-2560.8,-1525.4,-4805.2,-4875.8,2254.2,5263.4,-1505.2,-4569.9,-1164.4,-5371.8,-12164,-7814.6,8091.8,12130,5724,4310.1,4817.1,3302.4,-154.36,-4667.2,-5426.5,-3721.4,-4136.3,-2612.7,803.14,-4650.4,-6461.6,-7844.2,-9739.5,-7499.8,954.69,6720.5,-5612.7,-28027,-27013,-8215.9,6905,4795.4,797.26,2484.2,1500.2,5741.1,8732,3249.4,-3318.7,-8124.6,-3824,-4761.7,-10692,-10166,-4811.7,855.92,9569.6,15257,13559,8427.5,8121.9,4570.4,-2295.9,-7501.5,-6652.8,-6184.4,-2389.5,2717.9,6888,6935,2932.8,-16.888,-2314.9,-5636.5,-11247,-17813,-17851,-9839.8,1714.3,6178.9,-5498.9,-19976,-9126.5,16746,23766,5451.9,-3793.7,833.48,3424.7,2731.1,1412.3,-500.64,1972.7,1576.5,484.64,-638.31,761.13,1079,-2174.7,-3974.8,-8027.5,-10147,-9014.2,-5724,1209.4,4389.5,4197,1112.1,-1383.9,352.73,2408.6,-1343.9,-9528.9,-16388,-17696,-7660.8,746.58,-1851,-11151,-9819.1,1275.6,6073.2,5886,4503.6,6867.9,8359.4,2941,-690.04,-2679.9,-12459,-11935,3177.1,9198.6,2891.6,-2991,-4871.3,399.55,4484.6,-477.46,-5676.5,-3422.8,-1721.9,-3707.6,2509.3,6839.9,1572.6,3098.7,4781.8,1759.9,-906.61,-7633.2,-12779,-7765.8,823.14,-758.75,-8267.2,-9089.5,-3202.1,835.22,1906.5,2513.6,3045.5,1422.8,1228,2147.2,-2304.2,-9877,-10038,-2711.7,2713.9,2758.9,-4190.1,-5367,-6086,-15528,-19369,-7772.5,3815,6462.9,5051.6,4040.6,7495.2,8799.8,1913.9,-2042.2,620.35,3388.6,-379.69,-7453.7,-9566.8,-4776.1,1456.9,3957.7,229.44,-276.6,4178.8,5330.3,7194.1,5340.6,-134,1271,5819.5,1660.7,-9472.2,-10091,-4136.9,-2831.8,-7274.5,-5578,87.282,-3833.9,-10881,-11586,-2647.9,5365.4,4744,489.31,2295,4441.9,3064.9,3084.4,3531,3513.7,795.54,-1452.8,850.15,1840.2,-5839.9,-13360,-8023.7,1912.1,5306,2552.7,-117.25,-3217.6,-6240.8,-6441.4,-1959.8,-392.7,-1689.9,650.45,4490.2,-2193.1,-7927,-5852.9,-3800.6,-2825.9,-11.57,600.2,-3734.6,-5562.6,-1114.5,6100,7425.3,418.25,-5646.7,-5002.4,-3062.7,-2467.9,-2047.2,-2883.7,311.09,6085.8,7861.2,5381.8,1778.2,-38.114,-28.52,-6784.6,-8761.3,-3939.3,-1362.1,536,479.66,16.463,-1860.1,-5288.4,-6095.2,-3906.2,-454.11,-1948.7,-2199.4,-1718.1,-6807.3,-8685.2,-3919.2,3068.8,4354.6,1938.9,219.5,-2562.5,-2834.3,-5958.4,-7165.6,-1425.8,3795,3633.2,817.47,1512.3,736.33,-529.66,-195.85,-1542.3,-1289.4,-1389,-2370.1,719.01,4805.2,1896.1,-5918.6,-5645.1,-2839.5,-4388.2,-5160.8,-4691.3,-9471.4,-10203,-2615.7,6414.8,9480.5,3635.9,-4421.7,-5523.6,344.48,2924.1,1541.2,4100.7,3578.9,-2153.8,-3430.6,-3191.2,-4970.6,-7181.6,-5329.4,-1261.8,-547.77,-1503.3,-916.48,1759.5,2506.5,-1389.2,-4169.2,-3319.8,-895.77,-2943.7,-6800.6,-6236.9,-3678,-1969.3,2478.7,6520.6,3459.6,-1709.5,-1766.1,-1191.7,-4549.8,-4178.5,-1050.4,1577.2,3175,-323.65,-4186.8,-7916.3,-11985,-10325,-1368.4,6059.3,5847.7,4476.1,3448.9,994.76,326.28,-3051.7,-6253.1,-4638.8,-1822.8,-4188.5,-4977.2,2166.3,10773,7205.3,-1396,-4032.3,-6114.4,-11831,-16350,-8165.9,3638.4,6000.1,2648.5,2880.7,3832.5,840.16,-790.97,1749.6,1696.8,-2257.6,-3629.4,-852.79,2422.8,3395.7,1932.2,-1416.1,-3021.3,-1625.7,979.71,-235.77,-3751.8,-6816.7,-7347.5,-4230.7,-859.61,3112.8,3359.5,424.69,-1124.3,-1441.4,-2575.5,-2585.1,-3931.5,-5244.2,-3696.4,-916.36,3752.9,3873.9,1500.4,1222.3,1874.9,734.07,233.67,-406.26,-1748.3,-1406.3,-537.29,-301.28,-419.39,-1142.5,-807.67,-416.87,-2292.8,-2574.8,-18.889,-1927.5,-4926.2,-4271.5,-1547.7,-732.02,-2002.4,-1957.7,-252.1,240.39,-695.31,-1303.2,-2101.4,-3446.1,-3830.4,-2419.1,-1792.9,-2278.9,-1366.4,-98.26,-34.846,-2064.7,-4616.6,-4999.1,-1759.9,-10.556,-2644.7,-3457.2,-3095.5,-4083.7,-4723.1,-4620.2,-4324.3,-3012.6,-695.14,737.37,492.08,414.86,-390.97,-2094.8,-2997.4,-2819.3,-1597.3,-644.66,-1061.6,-1334.9,-555.06,85.626,532.73,1712.2,2593.8,3110.6,3723.1,3742.5,2486.4,420.14,-1935.1,-3523,-4507.8,-4335.2,-3907.9,-3542.7,-2440.2,-1025,-292.53,-178.58,-408.58,-489.11,-278.17,-444.5,-244.13,363.3,4.9305,-700.38,-599.9,13.359,417.2,452,945.8,2690.2,4385.5,3851,1356.9,-1307.2,-2274.7,-3513.2,-4586.5,-4419.1,-4332.4,-5175.2,-5095.3,-3298.2,-2213.6,-2868.7,-4140.3,-4424,-3773.5,-3205.7,-2746.2,-2148.5,-1965.5,-1778.6,-1433.5,-1415.8,-1926.4,-2398.9,-1654.2,-1396.5,-962.06,-480.91,-656.97,-1010.6,-1023.9,-1179,-2238.7,-3013.8,-2885.6,-2703.9,-2545.9,-1928.9,-1464.5,-1448.1,-1765.8,-1675.8,-898.26,-224.52,-278.48,-821.07,-1291.4,-1614.6,-1867.4,-2079.2,-1775.3,-1139.6,-171.32,1043.5,1759,1640.4,881.01,345.07,-581.51,-2379.2,-2817.7,-2852.1,-3164.1,-3424.1,-3096.9,-2446.2,-2087,-1958.6,-1627.5,-382.75,-177.29,-1573.3,-2759.8,-3054.4,-2367.7,-882.44,584.26,910.16,686.15,219.15,-275.78,-863.43,-1811.2,-1683.6,-683.45,-577.78,-1055.5,-1719.3,-2377.6,-2399.9,-1816.9,-1125.3,-550.85,-245.1,-600.2,-1360,-1424.3,-1308.2,-1398,-1619.1,-2058.4,-1914.7,-1831.4,-2020.4,-1884.3,-1946.8,-1752.7,-1067.9,-437.01,-126.46,-179.03,-344.18,-680.8,-517.2,-320.62,-965.55,-1344.4,-923.51,-541.7,-151.53,425.98,-92.324,-852.09,-937.77,-161.62,284.42,-26.616,-485.31,-478.28,-803.5,-1412.7,-1943.9,-2057,-2004.1,-1546.1,-779.58,172.15,286.68,63.044,324.88,145.97,-93.291,73.139,-95.37,-457.33,-494.27,-420.26,-334.76,-854.06,-1617.1,-2081.1,-2181.8,-1860.2,-1705.8,-1872.8,-1736.1,-1499.3,-1191,-927.04,-1219.3,-1708.9,-1790.9,-1448.7,-1166.6,-1243.7,-1573.7,-1829.8,-1479.7,-1020.9,-279.27,-310.8,-500.79,-668.93,-964.79,-1026.4,-765.63,-467.63,-341.88,-686.54,-1001.1,-883.48,-589.8,-725.06,-1067.6,-1319.6,-1323.6,-1219.1,-1083.1,-1014.1,-1307.4,-1482.8,-1443.5,-1336,-1387.1,-1737.3,-1929.9,-1855,-1880.1,-1924.1,-1893.9,-1464.7,-731.58,-157.34,-248.21,-636.69,-1101.7,-1540.5,-1543.8,-1293.9,-1237.8,-1339.2,-1538.7,-1488.5,-1210.5,-1007.5,-1143.1,-1263.1,-1292.3,-1167.6,-1004.7,-907.61,-1082.5,-1345.9,-1584.2,-1512.4,-1521.1,-1549,-1457.9,-1711.6,-2044.8,-2143.7,-2280,-2797.9,-3354.5,-2460.6,-541.87,1355.6,1683.9,376.16,-436.82,-719.71,-602.27,-774.48,-1172.8,-1402.4,-1563.2,-1256.9,-1101.8,-961.31,-1010.1,-1330.6,-1444,-1394,-1652.1,-1746.6,-1340.1,-925.58,-734.13,-864.76,-1192.2,-1898.1,-2550.9,-2281.8,-1343.1,-813.38,-490.35,-657.11,-883.94,-865.25,-681.11,-484.62,-728.8,-1065.8,-1472.9,-1628.4,-2140.1,-2882.9,-3172.5,-3138.2,-2892.8,-2643.2,-2048.9,-1289.6,-834.27,-1218.9,-2013.3,-2244.2,-2719.1,-3210.8,-2676.9,-723.04,171.26,-533.05,-1300.7,-2187.4,-2740.2,-2886.2,-2641.7,-1938.1,-1341.1,-427.74,78.105,-229.3,-521.44,-745.71,-1036.1,-1219.5,-1422.7,-1574.7,-1805.3,-2435.3,-2939.1,-3017.4,-2651.5,-1814.1,-1158.8,-1125.7,-1697.3,-2853.1,-4089.8,-4975.7,-5445.8,-4505.5,-2489.9,332.56,2543.4,1701.5,44.696,-682.16,-882.19,-655.83,-322.46,-710.22,-1159.7,-1161.7,-922.11,-908.48,-916.18,-556.07,-152.05,-542.98,-1175.4,-1693.1,-2334.5,-2787.1,-2484,-1366.3,-443.47,-323.32,-687.92,-785.63,-692.71,-533.41,-307.76,-188.6,-590.4,-1099.6,-1699.7,-2413.8,-2893.3,-2881.8,-2268.6,-1141.7,-469.52,-635.06,-687.86,-122.02,511.71,184.22,-470.78,-924.45,-1715,-1949.1,-1683.6,-1840.6,-1768,-1175.5,-25.003,1251.4,1181.2,508.67,171.16,-77.498,-172.21,-91.945,-106.91,-304.08,-361.95,-409.8,-514.69,-704.85,-1065.1,-1370.1,-1495.9,-1434.8,-1205.9,-1020.7,-605.46,-202.61,-267.74,-469.08,-601.17,-705.92,-918.25,-736.99,-579.47,-625.84,-878.87,-1199.1,-1349,-1173.6,-1140.5,-1052.5,-841.88,-901.46,-937.63,-934.74,-600.47,-402.57,-553.52,-518.94,-275.78,-581.91,-928.17,-1368.6,-1932.4,-2105.3,-1805.5,-1309.3,-768.89,-499.7,-876.84,-600.32,-358.4,-809.68,-1303.9,-1576.6,-1904.7,-2140.5,-2094.4,-1847.3,-1956.4,-2390.8,-2261.4,-2328.1,-2070,-2011.2,-2416.3,-2526.8,-2566.6,-2699.4,-3025.5,-3740.7,-3521,-2092.1,-728.57,-1003.6,-2232.6,-3231.9,-3737.5,-3774.5,-3166.4,-2629.4,-2135.6,-2121.5,-2938,-3381,-2951.4,-1479.4,1181.1,2043.4,806.01,-213.93,-679.36,-1365.6,-2020.6,-2521.9,-2194.3,-1551,-1229.5,-1320.3,-1852.1,-2487.9,-3013,-2842.5,-2556.4,-1845.1,-822.09,119.06,691.96,-170.37,-2472.6,-3603.5,-3487.6,-2020.4,-727.87,-385.49,-823.62,-1676,-2695.7,-2945.1,-2280.5,-2026.7,-2168.1,-1694.5,-569.2,937.2,1028.2,-45.412,-354.76,-1334,-3556,-5816.6,-5875.9,-3759.8,-1135.6,1663.2,2251,736.83,364.29,-96.119,-607,-874.95,-2731.3,-4100.4,-4220.4,-3307.5,-928.92,1399.3,1915.6,464.97,-1264.1,-817.95,454.8,2611.6,2606.2,-195.01,-2992,-3662.5,-3562.6,-3026,-1933.3,-1084.5,-1497.7,1834.7,7151.1,3715.8,-1290.6,-1614.5,-3216.1,-5917.4,-4925.1,-5498.5,-9791,-9868,-4383.2,-116.66,1554.3,4683.5,5789.7,5517.2,3579,9.5064,-1283.4,-859.11,-2093.4,-5126.9,-5286.6,-5197.9,-5322.8,-4200.8,-2597.4,-851.03,-1705.7,-1320.3,3865.4,4595.3,3764.5,2908.6,776.5,536.23,-1577.6,-3558.4,1864.9,869.67,-4485.6,-4965.2,-1437.3,2443.1,5207.4,2905.5,363.22,15.563,-1019.5,-2181.3,-1673.5,-434.29,-718.03,38.705,1040.9,3524.7,1548.7,-5475.4,-6945,-6378.6,-6998,-5307.9,2335.1,9703.3,8834.7,9280.5,9009.4,3691.8,-1529.2,-6005.7,-9426.3,-9786.9,-9896.2,-9544.3,-4074.6,700.42,-1709.5,-4978.5,-4342.3,-1546.9,2052.2,-620.32,-4722.7,-6460.8,-5459.1,523.99,4275.9,5637.6,4366,1918.7,675.03,-226.97,-995.3,2296.9,1139.5,-5127.9,-8240.3,-4686.2,1036.1,1947.2,1786.6,4170.6,3020.2,-1096.1,-5870.7,-6030.1,-524.34,5996.4,10471,6553.5,-931.43,-4580.6,-5861.4,-5053.3,-1824.1,204.43,1357.5,-23.594,-3417.3,-5768.3,-6798.1,-7189.9,-5195.5,-3861.7,-3585.9,-2344.9,-1118.3,-7138,-14564,-17205,-15369,-11459,-6239.9,1548.4,10488,15312,13893,6592.1,-2054.7,-6930.5,-5096.9,3834.4,11279,4778.5,-9994.9,-19141,-17651,-16618,-18496,-25870,-32622,-37276,-32705,-11652,10238,11751,11167,23023,27401,24700,15934,2898.5,-4179,-5228.3,-1369.1,4907.2,6139.1,8875.2,13335,13896,7551.4,4561.6,10057,4010.1,-9626.7,-16534,-13229,-4621.2,6094.4,12022,17089,13380,49.736,-10482,-15283,-15641,-9532.1,79.456,12093,12277,-1673.7,-7441.6,-3820.7,-2801.8,-2365.1,-4108.3,-11240,-20513,-23894,-12985,-487.39,7701.4,11307,9569.6,1767.9,-7472.2,-12819,-12656,-10993,-7086.5,4494.8,14714,21926,24069,16411,7842.2,4968,4946.9,1879.8,-10168,-17342,-11498,-584.67,1776.2,-10631,-23379,-28826,-16501,8756.1,17744,9843.6,5214.7,1801.7,-997.18,2895.5,4367.2,-1047,-5954.2,-6990.5,-5487.2,-2494.2,1958.1,8662,9428.7,7111.6,7608.9,3003.8,3144.4,6173.3,2372.9,-128.94,1029.6,-1519.6,-6963,-10342,-9114.1,-4286.6,-2046.5,2572.1,8283.9,8283.3,3863.5,4592.1,2400.8,-4149.6,-5132.6,-2873.2,-3256.9,-8379.4,-13724,-12719,-8686.8,-5398.5,-2588.8,218.32,-378.07,-3177.6,-1424.7,1413.3,13.88,-5624.6,-10338,-7097.7,277.14,4279.1,6712.4,5944,1953.2,-2857.6,-7070.8,-7190.6,-4148.5,-4179.5,-6863.1,-8498.9,-5529.5,-891.88,-1935.8,-6303.2,-9929.7,-10160,-2826.4,2334.7,4214.8,7310.9,7603.6,352.67,-2668.6,3541.4,1755.3,-535.54,1262.2,4059.1,-158.42,-4895.4,-3579.7,2021.1,4644.2,982.55,-1478.1,-747.43,-1951.4,-3561,-3213.4,-2097.1,-1552.9,-5538.9,-9441.6,-11353,-8029.7,-2285.3,659.51,-2695.5,-8983.2,-10670,-5873.1,2392.2,9545.2,12752,8273,2327,-1529.5,-2797.8,-3735.6,-7177.1,-14389,-14921,-1034.6,12850,11926,4158.1,381.08,-6726.5,-13238,-9815.7,-1038.9,2114.1,-1086.2,-173.06,3570.9,4281.6,1291.4,-735.64,-843.08,-2082.9,-3029.1,-3838,-3544.4,-2600.4,-1953.7,-2953.8,-4068.3,-3736.7,-807.76,2846.1,5294.9,235.37,-8299.2,-13068,-12809,-9672.9,-5969.3,289.56,7131.9,7753.6,8462.6,8509,5962.2,2875.2,661.65,1529.1,3877.8,4188.2,1816,-1571.2,-7734.8,-13721,-14855,-8337.7,-2628.5,-991.32,1420.9,7702,9828.5,6869.1,3159.6,-1662.2,-5462.7,-1198.1,6101.3,6543.3,2032.9,2272,4955.5,4056.7,-1819,-4637.7,-5122.5,-6338.8,-6856.5,-4157.4,1926.4,3175,713.81,-2697.6,-8380.3,-10089,-9181.8,-6412.3,-2705.3,1219.2,3681.8,6621,9219.6,4678.5,-2533.3,-2280,1498.2,-297.49,-54.285,751.54,-114.42,-2313.3,-2965.1,-4038.9,-3123.3,1066,1922.2,2276.3,4041.6,1030.5,-2115.9,-2250,521.07,-1346,-4688,-2846.3,378.4,244.15,-4027.8,-8723.1,-9496.6,-5244.9,-8.537,-209.45,-3595.5,-4689.7,-4091.2,-2022,1453.1,954.94,-3712.8,-8660.2,-11876,-10187,-4245.6,969.47,6517.6,10564,5708.9,154.37,-2383.8,-1234.1,-345.94,1171.7,-322.36,-5509.4,-9750.7,-10088,-5540.4,-80.49,4833.3,6643.6,4071.6,1074.8,1638,567.23,-2565.1,-4391.4,-2369.6,-648.09,-2612.4,-3415.4,-2022.9,-2607,-5824.4,-9095.4,-5933.6,1622,2512.9,-3374.9,-5109.9,-702.26,4526,3699.5,2264.6,3714.2,-1661.2,-10786,-15643,-12960,-417.67,6791.6,-2089.6,-10910,-9502.8,-1832.5,3823,4949.1,3724.2,-478.86,-5597,-5574.5,-1530.1,3211.1,2859.2,-1068.9,-2541.6,1917,5826.5,2705.2,-7334.3,-13050,-6012.9,6521.6,10886,5110.9,-1623.2,-2426.7,917.92,2448.7,-525.89,-4951.6,-6188.2,-4026.3,293,5442.4,5502.1,893.25,-13.428,-242.7,396.95,-488.89,-1909.8,76.443,1584.1,-1366.6,-9167.6,-13750,-8714.2,888.44,2878.5,-819.82,-1559.6,1931.1,3822.8,-2465.1,-7765.3,-6029.7,168.87,4881.3,4088.1,-2564.1,-2080.2,4335.7,3379.2,-1893.7,-10215,-22664,-27009,-14298,5304.1,12674,7692.7,3711.5,4522.2,2758.9,-105.9,-313.56,674.97,5087.7,4284.7,2215.8,2085.9,-200.11,-1807.7,-1548.2,-1680.4,-1487.2,270.09,2625.1,487.81,-3534.3,-6737.3,-9232,-6843,241.39,5549.5,4899.7,1135,330.71,2077.7,4331.6,6173.3,4614.9,-975.66,-9900.6,-13079,-8553.5,-3790.3,677.95,4561.4,-2629.4,-15768,-13448,-497.52,12323,13933,4466.5,-1559.2,-1565,-3687.1,-7823.6,-4075.3,-1114.3,-4241.9,-12833,-17595,-12761,-8673.3,-6044,1278.6,6353.6,7113.5,7669.9,7469.3,6889.7,5098.5,-2765.3,-9525.4,-3744.6,5225.1,4898.9,946.43,-615.5,-1868.5,-3262,-4941.8,-7336.9,-8477.9,-3868.8,3321,3703.1,-591.18,-2242,-153.84,1022.4,3665.3,4956,3019.1,-160.99,382.55,928.95,-2583.6,-6387.2,-6108.3,-1554.6,2208,3130.9,1087.5,-2785,-3358.3,3190.9,3984.8,-3422.9,-6814.3,-5079.8,76.646,1841.4,235.37,1984.6,2578.8,-353.6,-3400.6,-3851.8,1054,3747.8,-1204.8,-7785.3,-10536,-11177,-10598,-5252.8,788.42,2306.9,-578.79,-5541.4,-5513,1557.9,6497,5865.5,4009.1,227.6,-1559,-261.86,-1410.6,-915.14,-778.92,-815.13,182.21,-2614.8,-3691.6,-1559.7,350.9,1899.7,350,-4818.7,-12054,-15393,-16036,-8911.2,3563.8,7402.8,3484.3,253.34,-376.02,-2778.1,-6060,-3284.5,3225,3739.8,-1111.2,-3125.6,-3132.2,-4320,-4898,-2901.7,1084.9,5588.3,5600.2,2935.6,993.29,-747.53,-2795.9,-2969,-2224.7,-3350.1,-5656.8,-6941.4,-6799,-2074.6,2338.2,110.59,-2444.1,667.57,1382.5,-2504.6,-4696.4,-2374.3,922.55,1456.4,-422.45,-94.656,439.58,-1223,-2444.7,-1176.8,-1265.7,-2263.6,-1854.1,-580.23,10.526,-3247.7,-8434,-9795.6,-4605.9,2134.9,4367.5,2845.9,1537.7,2019.4,-187.2,-3387.5,-2842.9,568.17,2026.8,-144.14,-1915.2,-2308.8,-1624.6,-19.853,-362.32,-1964.5,-2984.3,-2327.9,-358.58,745.24,-148.51,-1471.1,-2060.3,-1687.7,-113.82,1785.9,1011.5,-1302.3,-2531.4,-2488.8,-1050.3,-101.19,-1108.5,-2322,-1270.5,1206.3,1458.4,91.589,-509.21,-2144,-2534.8,-955.43,913.51,562.23,-167.55,-0.039891,1044.1,2026.5,1422.1,458.4,-863.54,-1803.9,-645.96,802.83,728.37,-612.05,-1847.4,-2267,-1193.2,-963.93,-1240,-1006.7,-1452,-1936.7,-1592.5,-1001.1,-827.08,-1331,-1996.8,-1039,-697.15,-2085.4,-3305.4,-2871.4,-1393.7,-351.49,-700.61,-2048.3,-2050.8,-1172.9,29.637,838.18,1132.6,-781.2,-2298.2,-1856.5,-1480.8,-1206.5,-703.72,-1189.3,-2469.5,-4037.7,-4685.4,-3769.4,-3013.6,-3017.1,-2939.2,-2676.5,-2877.4,-3314.9,-2868.3,-2290.3,-1960.5,-1484.5,-1058,-966.98,-1398.8,-1710.8,-2211.1,-2483.9,-2584.1,-2533.5,-2293.6,-1964.6,-1696.1,-1509.7,-1656.4,-1868.2,-1654.6,-1490.7,-1482.9,-1827.5,-1898,-1364.7,-1464.3,-2413.5,-2836.4,-1940.3,-1629.1,-1708.6,-837.01,-1506.4,-3199.3,-2819.4,-1656.5,-1276.9,-1287.6,-1168.7,-658.96,-535.37,-720.07,-783.64,-1015.8,-1486.2,-1822.6,-1113.1,-381.66,-101.53,-141.81,-284.65,-755.43,-721.98,-548.87,-148.72,187.91,-103.62,-203.49,-1235.6,-2727.5,-3259,-3758.6,-3755.3,-2015,339.16,168.91,-1087.4,-1777.7,-1159.5,-872.65,-1443.5,-1720.4,-499.38,632.6,1036.2,920.18,88.403,-407.25,-712.24,-622.6,-427.37,-293.63,-333.1,-1140.6,-1620,-1806.9,-2314.5,-2201.9,-1602.3,-1353,-1224.3,-1297.7,-1403,-1007.4,-691.23,-738.86,-836.84,-945.61,-928.7,-809.82,-683.77,-571.04,-600.14,-884.61,-1117.2,-1119.7,-922.49,-1067.1,-1143.3,-1291.9,-1341.8,-1103.9,-933.79,-752.98,-906.26,-870.54,-1054.1,-1134.2,-1218.8,-1231.7,-995.27,-843.31,-910.65,-1076.1,-1059.6,-558.36,-728,-1228.4,-2637.7,-2164.5,-2475.8,-3099.4,-2999.3,-2051.9,-1733.3,-1539.2,-1569.5,-1988.6,-2095.1,-2188.4,-2107.2,-3253.4,-4320,-3593,-2019.5,-519.14,243.9,1020.8,1465.9,1643.4,1086,-1396.8,-5788.4,-9083.8,-9952.9,-8299.3,-6912,-6688.4,-3522.3,1236,2026.8,550.45,-724.01,-1285.8,-1822.2,-2480.2,-3036,-2783.3,-1951.2,-1177,-646.82,-936.7,-1613.4,-1752.4,-2440.6,-3655.2,-4610.7,-4378.8,-2842.6,-1520.7,-1732.3,-1371.8,-689.15,-1039.8,-1527.3,-1900.8,-1730.2,-727.24,301.32,754.17,30.955,-1612.6,-2991.7,-3825.1,-3917.4,-3287.3,-2035.8,-250.68,593.34,601.66,292.56,-490.75,-1353.2,-1142.4,-155.05,1472,2582.3,1936.3,-7.7276,-1326.1,-1140.7,-368.52,-25.728,-313.41,-774.97,-474.62,178.56,319.83,-680.13,-2288.7,-2966.3,-2595.8,-2190.5,-911.14,708.06,3066.2,5212.3,3852.3,1528.9,115.73,-415.39,-686.41,-313.85,-276.83,-216.06,-237.85,368.42,2077.3,3651,4295.5,3662.4,1950.8,1.3849,-1055.3,-1228.3,-1549.5,-2124,-1821.4,-2936.5,-3688.3,-3678.3,-1138.2,1960.4,2708.5,3233.3,4043.7,3958.8,2515.7,1285.2,768.1,471.79,382.34,-118.33,-839.86,-752.26,55.189,954.68,1175.5,95.524,-1111.7,-1107,-258.65,602.78,989.03,801.46,-146.53,-817,-866.5,-1259.4,-1925.1,-2187.1,-1714.4,-1592.5,-3480.8,-6049.5,-5849.1,-2221.2,1086.9,1638.4,259.43,-2707.4,-6559.9,-6685.8,-3091.4,-1909,-769.93,1123.1,876.77,-247.55,-461.39,-186.31,-1309,-3363.5,-4529.6,-5129.9,-5899.7,-5819.8,-3788.6,65.961,2270.6,911.02,-1351.3,-2887.5,-3266.6,-2465.9,-1331.5,-1123.5,-2109.7,-3633.5,-4518.6,-4122.9,-2694.7,-1451,-959.85,-1125.3,-1140.8,-1098.6,-1556,-2562.5,-3761.3,-4501,-4471.8,-3948.3,-3505.4,-3836.8,-4382.8,-4499.9,-3807.4,-3142.2,-2933.6,-2937.1,-2867.4,-2600.9,-2257.8,-2405.5,-3202.5,-4551.3,-5079.5,-4527.8,-4270.5,-4555,-4512.3,-4542.4,-5050.2,-5456.3,-4654.7,-2273.1,-1109.3,-1221.8,-1350.8,-1605.7,-2301.6,-3783.4,-4951.2,-4649.7,-3798.3,-3313,-3798.4,-4165.1,-4295.9,-4129.4,-3677.4,-3453.6,-3059.2,-2332.6,-1557.9,-1204.6,-1728.3,-2643.6,-3000.1,-2617.2,-2273.5,-1556.4,-1048.1,-1849.6,-3243,-4104.1,-3867.5,-3018.3,-2145.5,-1381.4,-328.25,656.85,1293,1068.7,-64.183,-1758.5,-2463.9,-2118.9,-2278.1,-3122.6,-3689.6,-2222.2,1012.9,4301.2,7286.4,7639.3,4585.6,2063.7,1229,1125.3,1137.4,1143.1,1145.1,1557.4,2925.4,4379.9,5739.8,7594.2,6715.4,2951.9,-1351.1,-3245.7,-2949.7,-136.48,2381.1,6451.2,11220,8800,-1361.2,-7694.1,-6458.1,-2753.7,202.91,4212,6766.8,5327.2,2236.8,2482.3,4223.1,5808.6,7725.8,7608.9,5084.8,6638.7,13758,9191.8,-4985.7,-10977,-4791.9,5898.4,8767.3,4307.4,-775.43,-5759.1,-4666.3,4397.4,10439,5059.3,-3721.3,-6694,-6044.7,-3951.4,-1273.1,1922.6,9270.4,14368,5387.1,-11475,-11158,-1885.9,2208.6,-1098.8,-11174,-14312,-1941.5,6009.4,2951,-382.44,-2271.9,-6333,-9394.6,-9461.7,-8539.6,-10017,-1867.1,10712,6231.6,-12828,-21743,-16558,-9460.6,-7486.7,-6022,-2362.2,2691.5,14080,9779.6,-11025,-14781,-4058.2,3908.6,-1302.3,-2521,-2586.2,-17339,-21114,-12499,-8000.5,-8061.2,-11714,-13461,-13829,-10020,-2852.9,-2663.1,-8874.8,-9450,-3772.6,447.53,-113.97,-2999.2,1418.3,2794.1,-8477.7,-15161,-18017,-17906,-9807.9,2805.6,15202,22018,16019,12658,15509,14443,9767.5,8142.2,-1117.5,-8227.6,-15423,-12204,3674.5,4491.8,-539.24,1389.2,3463.6,783.86,-1724.3,-2883.9,-3985.7,73.895,3379.2,4325,3728.1,-4526.4,-14720,-10546,-1668.5,-1098.6,-8013.9,-12870,-5332.5,4698.7,10976,10032,1191.5,-13166,-25988,-29225,-21650,-1989.5,12897,6902.7,-348.04,3261.2,1798.9,-9847.4,-16789,-12705,-7461.4,-3129.5,5198.7,14034,21121,18840,5836.7,-6614.7,-12738,-12605,-3465.9,3070.2,899.81,2483.9,11291,18332,12322,435.24,-1906.8,-3627.2,-4180.7,4760.6,11759,11030,10394,11891,13674,14047,6279.6,-4716.4,-12322,-15959,-11337,-6741.4,-2286.9,-3074.2,2896.8,12390,13601,9087.3,6424.7,5862.4,8529.5,11325,12370,14000,12125,-1879.1,-11194,-11733,-8873.8,-5384.1,-8320.5,-26948,-51386,-58616,-47217,-11026,23543,42767,43355,30237,14400,10840,16301,18107,7030.4,-9731.6,-15992,-19032,-8670.3,8258.3,13305,10436,-2808.7,-21551,-30397,-33956,-49374,-50858,-25976,2891.5,2986.8,-7990.7,-236.59,24311,37749,36954,30196,26497,16525,6959.1,2978.5,7493.4,11899,5898.7,-5778.4,-4564.1,-389.7,-15638,-19389,-8749.3,1258.2,-4259.1,-19781,-26752,-25822,-10149,21320,36467,20784,-10597,-25380,-32119,-33114,-17918,-2473.2,10707,5476.9,-14441,-23763,-7149.8,14830,7957.1,-12657,-21599,-21279,-4174.3,16094,18857,9998.7,-1408,-13769,-16148,-12065,1150.5,24556,24829,1463.4,-11422,-17429,-25057,-37845,-46239,-30237,-145.73,26584,43495,37399,23988,15480,7427.4,267.64,-9355,-17058,-25826,-18809,6805,24505,20113,15895,21309,23456,21990,1990.9,-13686,-17809,-15072,-11387,-8784,-10781,-19743,-16670,-2449.6,3682.7,-1545.4,-5521.1,-2785.7,-164.38,733.64,856.78,6785.9,13846,12351,-6150.3,-23536,-20699,-14269,-10182,-1838.6,12687,7441.2,1642.8,-61.797,-2607.9,-13219,-25954,-24995,1594.7,29221,32826,20641,1825.2,-5436.6,4697.7,6937,-5735.3,-17661,-17629,-9201.7,-3013.6,2434.5,11066,11650,6156.7,8544.1,17746,-5764.8,-21408,-14973,-10036,-6114.8,351.41,3569.3,2528.1,2387.1,5142.1,5014.8,-1414,-6091.6,-6351.5,-5840.3,-2286.4,-7890.2,-10264,-2796.6,7877.6,10933,3039.6,-9483.2,-18665,-8922.7,1519,-6341.5,-9635.2,5491.1,17458,20574,14657,3699,-3733.4,-2125.1,2523.2,5133,9135.3,8049.4,4675.3,-318.73,-14851,-21505,-18751,-12510,-1076.7,5911.9,9502.1,12095,10799,5495.5,-1866.8,-3027.6,3640.5,6605.3,4416.1,728.03,-6167.1,-8679.4,-4309,-1426.4,4080.5,10847,13608,1436.8,-12133,-10758,-6670.1,-5444.3,-10382,-16197,-7354,4625.9,8745.9,6041.6,10783,17834,17208,4991.8,-8966.4,-17683,-26506,-37739,-40155,-23543,4132.5,16235,14928,8790.9,3676.9,5255.6,7711.5,5900.2,5233.9,8362,1474.4,-17429,-34440,-33481,-10336,10497,14442,13440,10030,9130.7,8554.1,9141.1,-5338.8,-16496,-17785,-19435,-16506,-9263.7,1672.6,10970,11922,3687,-6183.7,-11071,-6811.8,-1892,-1196.2,-527.4,5287.1,532.65,-16833,-15112,7066.6,20985,9298,-8274.4,-13784,-14504,-15133,-4223.6,4760.4,1461,3573.8,10358,10304,9824.1,3798.9,-3410,-8136,-14064,-17491,-9970.1,-8491.2,-10980,-1207.7,11472,11631,4995.3,232.13,971.14,1567.8,-515.14,2019.3,8661.5,7307.1,-2125.9,-11634,-17957,-12875,-7690.5,-2921.7,772.02,181.51,-445.37,2216.6,3586.1,226.46,-5431.2,-8058.9,-1208.5,8327.7,5515.7,-1232,-8139.9,-5621.9,3151,11380,10330,6960.5,5808.3,2836.8,-708.59,-27.005,101.26,-583.38,-3829.8,-4117.5,161.72,373.04,-6565.2,-8223,-2040.4,2507.8,-3366.5,-10217,-7170.7,1849.4,6449.8,3913.9,2780.5,3331.6,5596.5,9449.6,10893,9293.7,4699.9,-1938.9,-6162.5,-8114.1,-10366,-10492,-3467.4,-1476.8,-1273.5,2778.4,1081.7,-2811.6,-5290.5,-3390.1,5274.2,3676.9,-13254,-19656,-18882,-13166,1978.9,18506,24026,15475,-2747.3,-10189,-8977.4,-8841.3,-7130.9,-1797.9,-1464,-6020.2,-4022.5,4096.4,629.52,-11812,-14460,-10434,-3005.9,11344,17972,13453,2918.4,-6083.3,-13872,-18975,-14879,5775.8,18315,6447.4,589.21,5630.8,5650.1,2847.2,-2106.6,-3336.9,-4049.1,-3695.9,-5859.5,-17850,-20645,-5715.6,8539.1,11978,14616,12476,1483.5,-4248,-3007.1,823,5317.6,4117.2,-4279.8,-12552,-11795,-2353.8,-283.14,-7133.5,-13680,-22531,-41610,-64286,-48404,2698,36503,42375,35972,27547,20060,13836,6448.6,4742.3,2921.1,-2609.5,-9799.2,-15367,-12180,-2328.3,8692.8,12896,7334.7,-2968.1,-12136,-18311,-21125,-10972,8614.1,21490,19433,8822.7,1383.9,-3225.5,-5603.7,-4782.9,-4324,-2796,-2530.5,-3431.2,-3247.6,-6753.7,-7474.9,-2333.1,-547.17,-432.71,-2128.3,-1099.9,3942.8,6491.1,7205.8,4717.9,843.57,-422.63,-5693.5,-8482.6,-484.06,-2294.9,-9851.1,-8479.2,-6342,-5188.9,-10141,-16792,-15121,-4384.9,9017.3,13723,13448,10963,5495.8,179.61,-1618.3,-304.16,3122.2,6951.6,8060.3,1796.9,-7799.6,-13842,-13685,-6825.3,-2781.2,-5942.5,-8772.5,-5514,3993.8,7185,2068.7,94.565,239.84,460.29,126.86,-2051.9,-7537.3,-11101,-9898,-4112.7,2735.1,2208.6,-2591.7,-6286.1,-11363,-16378,-8895.8,3848.2,5673.6,2391,5817.1,9029.2,5808.1,5789.3,5123,-1268.7,-11705,-17732,-11749,-1515.7,6269.3,10073,8743.4,3107.5,-2959.1,-3343,-1896.7,468.42,409.28,-1752.4,-1980.2,-7463.1,-14861,-12315,2025.5,9110.4,2969.7,825.82,5668.3,8846.5,9832.8,2936.4,-6144.4,-9722,-8267,-6604.3,-10867,-12647,-6060.4,422.41,-2073,-1541,-548.63,-1442.9,-2219.4,-1724,-2044.3,-7623.9,-8183.3,153.59,3494.1,5057.3,6278.5,5086.5,2395.7,2822.8,6848.8,9645,7147.8,1290.2,-1503.5,90.428,1197.2,-2562.6,-5361.9,-956.38,6265.6,5442.9,2719.2,1809.7,-2127.5,-9536.7,-8432.7,-4691.9,-6495.8,-3520.4,4020,6172.2,1257.4,-9040.8,-13266,-4562.4,4070,3197.2,-750.26,-4417.9,-6073.9,-2932.3,960.3,5832.5,8206,-75.468,-9187.2,-11770,-9359.5,-10376,-12806,-10609,-6375.3,-1260.2,2040.4,2732.3,1177,2464.7,6062.1,7845.2,7756.3,9719.5,8125.3,3496.7,2308.3,1572.6,4863.1,6225,243.68,-4033,-3748.7,386.59,253.95,-6965.2,-16012,-19052,-11858,393.82,3755,3936.4,5955.6,3958.7,2287.3,4410.9,4424.3,1657,-271.7,12.68,-716.64,-2218.2,-1910.4,-1158.4,2243.2,-5733.4,-21217,-26091,-18251,-2379.3,9950.1,11629,597.9,-10121,-10090,-12162,-16116,-18354,-9413.1,9528.8,13087,4769.6,3104.7,4911,4559.8,4879.3,5362.6,4340.7,1696.7,545.84,1898.3,2088.6,-100.46,-1534.8,-2941.9,-6001.2,-7501,-3550.8,-1947.7,-2654.7,2018.3,2153.4,-1867.5,-2934.3,-7118.6,-10813,-4327.9,-395.6,-4814.1,-7459.5,-8493.3,-12817,-12447,-4400.3,7633.2,15291,14752,8839.8,2487.1,-3025.5,-4538.3,-1613.4,-95.297,-510.89,1558.4,-654.15,-3702.7,-6590.7,-9574.5,-8462.5,-3067.8,5316.1,10180,8629.4,4415.4,1943.1,125.79,-1457.7,-2285.9,-6498.7,-7040,-2712.1,-218.82,-402.47,2162,7486.1,9447.9,5004.2,-1527.1,-6759.5,-11246,-12429,-10251,-9888.5,-10861,-6188.7,2712.3,12701,10297,-961.52,-4751.7,-2298,-1233.7,-1528.2,-2117.1,1605,4820.7,3297.1,120.31,-1447.3,-2145.5,-1865.9,-958.39,-1115,-7238.4,-12252,-7136.1,4003.7,9622.5,5155.9,-108.54,-1406.4,-1628.6,-4144.2,-9689.4,-13529,-13663,-13209,-9939.7,-7080.9,3534.8,15059,17061,11218,6837.6,6538.9,4072.6,-1457.1,-5918.4,-7046.4,-5350.9,-1950.3,-413.97,-582.3,315.94,1163.3,1374.6,-1388.4,-4826.8,-5118.4,-2545.7,-772.83,-5584.7,-11209,-9612.9,-5976.4,-100.18,4647.2,5580.1,4547.2,6393.3,7276.4,4498.7,1075.3,-2861.4,-2808.6,1317.2,6374.8,9031.9,7190.2,1384.7,-2208.2,-2415.3,-1356.6,-1456.2,-1866.7,-3278.4,-2613.8,-1957.4,-6613.3,-8154.8,-5290.1,-6526.9,-12030,-9767.2,-9241.9,-7983.6,-5953.5,-7359.7,-6516.5,4111.8,15288,12819,5378.6,4339.1,4489.4,1575.2,-1313.9,-1827.6,-272.86,1784.7,-75.151,-1257.4,-3091.7,-3885,-3730.5,-2334.3,-328.61,216.34,-969.98,-2662.8,-3728.4,-4197.1,-4195.7,-2949.5,412.35,3315,3572,2986.6,1685.5,-2718.7,-6575.5,-6986.6,-4622,1874,3940,1659.6,449.56,-88.165,-2219.2,-4666.7,-4375.4,-1991.7,299.94,2564.2,2269.4,-375.89,-1200.9,-1240.5,-1940,-1828.2,-3237.9,-6862.6,-9413.8,-8441.3,-6352.5,-6357.5,-5644,-2581,-1421.3,-2004.8,-1780.7,1341.2,4176.6,2511.6,-481.37,-823.94,1624,2246,732.7,196.33,1067.2,1124.1,-565.28,-1956.7,-2974.1,-4624.5,-6184.1,-6369.3,-5160.7,-1246.6,4028.9,2362.4,-1779.8,-3382.5,-2926.4,-1377.2,-969.63,-923.79,13.65,193.56,-159.49,427.29,513.17,-289.44,-1719.2,-2922.1,-3322.7,-3895.6,-4929.5,-4367,-1503.5,540.46,-167.84,-4039.7,-7453.6,-5900.2,101.69,2747.3,1582.1,86.504,-180.85,-212.23,-1189.2,-1847.1,-2814.4,-3921.8,-3172.1,-1781.2,-3309.7,-8332.3,-10673,-3906.3,3162,2412.8,781.97,-1474.7,-5368.5,-8854.3,-10818,-8783.3,-2720.3,2322.3,5195.2,6794.8,6387.4,4543,2834.2,1277.9,-10.367,-502.88,49.536,1403.8,1320.6,-629.88,-2240.4,-5802.5,-9266.3,-10151,-9040.8,-4470.7,1539.6,4827.6,3862.4,2994.7,2479.2,31.173,-2287.1,626.93,3921.9,4387.7,3135,769.74,-682.85,-917.71,-1115.7,-1636.8,-2416.1,-3174.1,-3483.8,-2827.2,-1045.8,958.74,1697.3,1800.7,1236.8,1274.1,-3321.5,-17562,-21983,-7778.5,5244.3,9193.1,9750.6,7807.7,206.92,-10909,-15633,-10808,829.3,9453.4,8109.2,4628.6,3031.8,314,-4430.5,-7836.2,-9287.8,-9317.4,-5157.8,2149.9,5942.9,6425.8,6184.2,6108.4,3771.2,455.59,-1936,-4838.3,-7833.8,-5691.7,-176.05,4657.8,7375.5,5677.3,-4084.1,-13947,-9897.9,4824.4,9864.4,6008,949.81,-1911.8,-1518,-4180.8,-8311.7,-4902.3,2102.5,4957.2,4756.2,3123.4,1182.9,-635.11,-2493.7,-7355.5,-8575,-2712.8,3263.7,3227.4,886.94,-376.62,-521.3,-206.3,454.79,446.46,-308.02,-1167.9,-1588.5,-1861.5,-2386.2,-5118.9,-9784.5,-8712.1,-1219.6,5425.6,4529,876.98,-1527.7,-2231.6,-1850.9,-2449.7,-3691.7,-2985.2,-1799.3,-1439.8,-976.76,-173.9,-112.53,-1459.2,-2022.7,-2152.4,-2243.2,-2512.7,-2685.3,-2618.6,-2342.2,-2057.9,-1826.8,-2086.3,-2597.4,-3041.4,-3451,-3835.2,-3533.7,-2729.7,-1811.6,-1513.1,-1863.5,-2201.4,-2501.3,-2757.6,-2712.8,-2406.9,-2096.3,-1782.2,-1336.7,-899.24,-999.1,-2029.5,-2831.7,-2954.4,-3069.1,-2882.5,-2713.3,-2483.1,-2496.9,-2896.6,-2760,-2519.2,-2537.4,-2185.1,-1591.7,-1542.1,-1709.4,-1899.8,-2074.8,-2252,-2166,-1907.5,-1735.6,-1919.4,-2049.2,-2410.3,-2989.3,-2930.7,-2624.1,-2581.3,-1968.5,-770.3,-246.4,-635.56,-1317.9,-2175.4,-2623.1,-2760.7,-2899.1,-2995.7,-2911.6,-2585.1,-2407.9,-1994.3,-1126,-497.69,230.64,1163.9,1234.8,677.38,325.31,193.74,12.459,-129.66,-692.16,-1271.5,-1458.1,-1450,-1211.3,-971.47,-900.82,-887.3,-853.14,-1082.7,-999.92,-696.13,-716.9,-135.18,841.77,1197.9,651.07,-89.554,-589.94,-958.48,-994.87,-724.27,-525.23,-511.62,-664.8,-789.82,-812.6,-464.85,-220.49,-194.85,-28.758,262.78,280.53,-228.72,-646.13,-488.79,-453.3,-401.09,182.28,522.48,616.52,517.68,302.32,497.54,910.72,1080.5,1444.9,1892.3,1896,1599.3,954.1,412.62,122.85,340.1,718.74,747.82,590.62,326.56,52.939,-116.3,-18.248,182.93,421.42,828.61,1201.9,1234,574.98,-264.46,-891.78,-1109.9,-1201.2,-1312.1,-1503.2,-1819.6,-2157.6,-2522.1,-2412.6,-1834.9,-1340.4,-1198.5,-709.91,-476,-1029.7,-1932.4,-2728,-3379.8,-3894.4,-3835.7,-3171,-2507.8,-2432.2,-2555.8,-2649,-2730.6,-2415.4,-2020.3,-1588.9,-1296.4,-1404.5,-2020.8,-2879,-3536.9,-3637.8,-3140.8,-2533.8,-2179.2,-2104.7,-2230.4,-2242.2,-2458.3,-2831.5,-3197.5,-3455.9,-3058,-2256.3,-1925.7,-2511.2,-3242.6,-3672.3,-3812.8,-3539.9,-2941.4,-2448.2,-2157,-2130.7,-2082.7,-2236.6,-2569.5,-2617.9,-2350,-2023.8,-1689.8,-1603.2,-1658.2,-2053.1,-2542.1,-3012.9,-3196.8,-3141.4,-3052.1,-2599.3,-2239.1,-2319.9,-2609.6,-2823.7,-2596.6,-2045.5,-2064.9,-1560.1,-1188.6,-1881.2,-2677.4,-3023.4,-2867.4,-2555.6,-2232.5,-1819.9,-1573.4,-1530.5,-1750.2,-2059.9,-2378.9,-2269.3,-1739.3,-1271.7,-1352.1,-1870.3,-2441.2,-2809.3,-2585.6,-1827.8,-1388.1,-1008,-523.01,59.578,211.75,-319.88,-1070.5,-1601.5,-1395.9,-720.14,-186.75,-183.34,-572.84,-1073.2,-1482.3,-1503.1,-1415.4,-1200,-669.48,75.927,592.13,917.61,535.26,-347.57,-808.65,-579.57,-68.727,65.461,-344.67,-821.18,-947.17,-756.35,-274.77,166.98,558.56,1051.7,1838.5,2445.6,2179.7,1557,897.07,179.3,14.255,139.27,501.13,610.78,262.3,45.394,-119.19,-177.46,-190.04,-49.281,459.72,1367.7,1832.8,1688.4,891.71,169.3,380.26,893.53,1437.7,2181.2,2830.2,3199.5,2457.1,1318.7,-492.75,-2771.5,-3964.2,-6154.6,-7601.8,-6344,-1191,5549.5,8152.1,7138,5293,4807.9,3387.9,1061.6,-1775.3,-2705.4,-2016.6,-413.57,26.181,-3078.3,-10748,-19537,-20214,-6122.2,5483.2,1401.2,-5303.9,-8505.5,-12308,-12768,-628.04,9084.9,9750.6,6708.4,3856.3,-1102.4,-2439.1,-5606.9,-11682,-10271,-9208,-8470,-4736.9,2677.2,7317.8,4991,1799.7,1955.7,-23.738,-3119.6,-3413.5,-4272.6,-5342.4,-2837.2,4810.3,10272,7145.6,767.61,-3989.4,-5016.3,-5041.7,-5532.9,-5575.8,-5112,-3812.2,-2044.2,59.961,1314.4,860.13,45.631,158.91,-417.17,-2919.4,-4912.8,-4627.6,-3101.7,-1453.2,-23.44,269.35,-71.523,-965.87,-2712.2,-2873.6,-2206.3,-2753.7,-2003.9,-242.19,2613.3,4612.3,2544.9,-4007.2,-8438,-8454.3,-6775.7,-5771.3,-5597.2,-5640.7,-6318.2,-7992.5,-7963.5,-7539.4,-6202.2,-1738.9,2965.7,5777.3,5614.2,2441.8,-1007.2,-6011.9,-10656,-13924,-13079,-7908.4,-3645.9,-2033.1,114.46,1172.5,2129.3,3853.9,5209.7,5622.5,4160.3,2363.2,1156.2,779.43,-116.2,-675.95,-343.41,400.57,922.02,-142.87,-2685.8,-3908.1,-3209.4,-2217.5,-825.04,1526.5,3338.5,5060,5342.8,3898.8,3032.3,125.38,-4252.6,-6077.4,-2651.7,-202.74,-1592.7,-4066,-5363.5,-4911.7,-3218.7,-1305.2,821.99,1042.6,979.65,-186.05,-977.67,448.43,2110.2,2824,2345.8,2440.9,3989.9,5710.4,6585,6069.4,3419.4,-101.58,-2007.7,340.83,3122,3071.4,275.87,-3840.7,-5492,-3861.7,-1045.8,589.14,1556,1760.1,39.118,-2296,-4946.4,-5210.1,-2745.8,-1901,-1615.7,-685.4,974.96,1957.5,1862.2,83.974,-2781.3,-7105.2,-9353.8,-7902.5,-4745.7,1643.2,4614.5,2532.8,-1003.6,-2963.7,-2363.9,-623.27,-962.24,-3440.4,-5263,-6617.6,-8023.7,-4684.5,2845.5,3503.1,-1535.7,-6416.7,-9296.7,-7756.1,-3179.3,1965.4,4894.6,2966.5,-3175.3,-9373.3,-11767,-10503,-4401.5,1696.5,5113.5,2470.4,-4499.1,-7143.9,-2740.9,1713.2,3019,-781.61,-9355.9,-14167,-14179,-10481,-1967,7598.6,10991,9150.3,6865.8,4630.4,1494.6,394.71,1093.4,1825.3,2284.9,3494.5,3445.9,-379.02,-6638.5,-9579.6,-5878.8,-1161.9,1135.9,3606.3,4638.3,2718.2,-1131.8,-2957.9,-483.69,1367,329.29,-1341.9,-2017.4,-2350.5,-2283.3,-1873.5,127.99,2152.8,727.36,-820.79,-79.021,900.75,642.03,-265.31,-1331.6,-1829.3,-2579.6,-3173.8,-2928.9,-863.98,1406.2,2345.3,-348.2,-6444.8,-9486.1,-7356.5,-5366.4,-3824.2,-35.728,1233.1,218.8,-733.77,-3047.1,-6057.1,-8242.3,-7082.5,-2344,2901.8,5420,-110.99,-7148.1,-8373,-4509.3,-171.37,688.11,221.67,-1064.1,-2145.1,-1864.8,-1322.5,-863.47,-1304.1,-2259.1,-2393.8,-2245.3,-1872,-625.55,-264.21,-1206,-392.58,1318.9,399.63,-1379.8,-782.93,365.78,1557.1,2054.2,774.09,-716.17,-1279.9,-826.03,-169.82,-68.508,-905.98,-1820.7,-4091.8,-8255.6,-10328,-8480.8,-5604.8,-2310.7,1932.3,2503,60.494,-1773.2,-3220.7,-1487.2,615.58,120.16,-901.06,-1998.1,-2034.4,552,2649.7,1954,-1441.4,-2341,-358.05,-1118,-2798.7,-2512.7,-31.403,259.68,-3614.7,-6789.4,-6491,-3327.1,835.35,4986,5315.7,2122,-43.594,-350.19,-443.71,140.96,1532,1775.6,398.4,-937.95,-2002.8,-2823.9,-1617.5,-864.87,-2601.3,-3075.3,-1199.6,-535.19,-1005.4,-148.82,756.67,63.819,-1370.1,-1100.9,350.94,1936.4,3464.1,3708.5,1855.6,18.959,-1663.2,-3181.2,-4733.9,-5347.9,-5355.1,-4169,-1190.1,1851.8,1786.1,102.47,-1012.5,-1427.4,-2572.7,-4349.3,-4977.2,-4046.2,-1186.8,1912.3,2938.7,1084.5,-2248.6,-3332,-334.73,2942.2,2947.4,973.75,-1995.1,-5346.6,-5769.9,-5318.9,-6005.4,-4795.9,-3149.8,-1045.9,1825.6,2528.2,2205.6,2134.8,984.52,-971.39,-2710.9,-3772.4,-4084.5,-4382.1,-3795.8,-6.1534,1711.5,659.42,821.99,1177.3,1129.5,1702.9,1664.5,185.39,-1334.4,-2492.3,-3212.2,-4944.7,-5810.2,-4190.8,-2920.9,-2265.9,-1362.1,-743.34,-755.69,-922.63,-1136.3,-1433.8,86.631,1263.2,-731.11,-4446.7,-6062.5,-5179.6,-4113.7,-3349,-2275.4,-3497.1,-4568.2,-1854.8,1683.2,2208.9,724.68,-763.5,-1408.6,-1009.6,-879.91,-974.64,-681.07,-935.25,-2536.9,-3801.6,-4939.3,-4847.9,-555.6,2938.9,1879,-253.92,-929.53,-571.85,-1010.8,-1701.7,-1924.6,-2101.1,-2198.9,-2076.4,-1638.9,-1039.5,-404.44,-193.51,-682.85,-2430.1,-4759.7,-6805.6,-8811.4,-8679.6,-4208.5,681.31,3023.3,3973.5,4224,2456.8,561.16,-625.22,42.618,999.77,1214.5,1639.5,2303.3,2106.7,339.57,-1754.1,-1840.2,-1820,-2656,-3529.3,-3879.3,-4087.8,-3565.2,-3187.1,-4786.4,-5971.9,-4755.5,-2545.9,-1406.6,-1082.8,-402.85,675.25,-797.66,-1478.1,-483.26,-810.45,-1966.3,-1962.6,-2549.6,-3808.2,-3054.4,-1456.2,-1160.1,-1061.1,1150.7,1886,190.92,-591.25,-588.81,297.25,546.86,-764.93,-1390.3,-839.01,-731.19,-796.56,-643.17,167.92,181.18,-1396,-2780.9,-2578.8,-1610.1,-696.62,-116.36,-98.513,-640.25,-1437.9,-2130.6,-2542.3,-2255,-2076.6,-3118.1,-4317.3,-4928.9,-4415.4,-1831.6,2038.2,2691.5,-733.91,-2596.7,-2190.6,-977.96,861.5,918.12,-724.01,309.57,4022.7,4201.5,1792.3,723.23,473.6,-796.95,-2664.6,-3190.8,-2655.8,-1339.8,1100.7,2562.3,1689.2,446.49,-127.05,-585.1,-1201.7,-1976.1,-2432.6,-2303.9,-1108.7,256.43,999.91,1559.1,2250.2,2772.7,1829.2,-190.2,-1414.4,-1862,-3942.4,-7437.1,-8338.1,-6834.3,-6119.3,-5159.6,-1141,3082.1,2629.1,-490.05,-3418.7,-3925.3,-3457.8,-3138.4,-2872.8,-1087.6,1134.4,592.96,-1737.4,-3000.8,-3464.4,-2458.1,-1075,-500.04,-394.63,-630.33,-1656.5,-3164.5,-5411,-7257.5,-6134.1,-3538,-240.13,3138.5,3085.4,-508.5,-3028.4,-2359.6,465.89,2617.5,2496.3,758.29,-608.91,-1161.4,-1825,-1792.8,-1375.7,-1445.5,-1848.2,-2203.1,-2968,-2623.1,-376.47,1566.9,851.11,409.63,34.321,-453.98,213.1,590.06,218.51,-334.34,-806.88,-669.29,-425.56,-279.03,-188.28,-1242.4,-2297.6,-2216.5,-2374.4,-4049.5,-6118.2,-7546.6,-6899.5,-5345.5,-3325.2,-126.55,-805.51,-2987.7,-3054,-2245.1,-3091.8,-5126.5,-6802.5,-5118.6,-2049.9,-1445.9,-788.82,-45.696,1086.1,2325.8,2333.2,605.85,-645.07,-548.72,-551.94,235.22,848.52,-421.25,-2142.1,-2955.2,-2475.8,-1979.2,-1488,-907.25,-653.45,-1063.2,-1421.6,-2092.7,-3107.4,-3068.5,-1717.2,-1040.5,-1798.5,-2156.7,-1488.5,-636.64,-160.09,-291.7,-998.13,-1653.2,-1754.1,-1623.6,-1891.6,-1844.1,-1152.4,-1036.6,-1108.4,-1061.4,-1524,-2097.2,-2254.2,-1835.3,-1622.8,-893.19,-129.58,654.81,936.48,2.9608,-564.58,-235.95,948.66,1530.1,318.71,-957.29,-2176,-2976.1,-2318.3,-1148.7,544.32,1961.3,912.82,-1694,-2893.5,-2631,-2291.5,-1078.8,336.36,-599.13,-973.94,-126.35,-459.57,-1039.2,-1135.7,-1125.9,-873.35,-474.49,-83.389,-8.0487,-256.28,-246.55,-119.34,-584.09,-1710.5,-2397.6,-1764.9,-673.32,-116.88,-53.829,-540.4,-796.87,-1491.3,-1891.1,-1262.1,-1783.3,-5635.4,-10485,-7586.5,207.74,7097.2,7046.3,2460.6,-1293.9,-2855.2,-4869.6,-6337.6,-3278.8,-1197.5,-2222.9,-2732.4,-1940.8,380.38,3402,3354.6,2319.4,630.86,-2175,-5169.1,-5226.4,-956.91,2972.5,3239.1,1050.7,-203.71,-733.95,-920.55,-1353.1,-3106.1,-4267.7,-1763.1,139.99,608.51,1386.3,682.93,-3348.5,-7856.5,-7607.4,-3020.2,17.168,1432.9,1090,-531.85,-1984.6,-1647.1,1090.8,1505.2,-890.76,-2486.3,-4325.5,-5372.4,-2417.2,1985.7,1758.1,142.6,-650.23,-224.51,520.7,-178.74,-1510.1,-2564.2,-5814.6,-11240,-9838.9,-3498.6,-705.76,-5853.8,-6486.8,2560,10292,8315.6,-2877.9,-15783,-19495,-8213.8,7056.5,11966,7323.5,3240.1,2557.9,1500.6,261.25,328.99,502.82,620.32,640.71,159.51,-782.18,-1563.3,-1219.9,69.27,-1277.8,-4756.9,-3900.6,286.58,4648.2,3640,-1264.4,-2301.4,-3706.9,-8161.7,-11306,-9122.3,-1335.3,4034.5,4846.1,2467.5,-90.217,-2810.6,-7651.1,-9410.7,-5023.9,332.49,2663.2,1733.1,1046.8,1120.7,1214.5,438.98,-656.89,-1412.2,-1469.8,-751.44,57.223,-571.26,-1745.8,-1485.2,-1210.3,-1719.4,-2843.6,-3215.2,-2550.1,-2063.2,-1657.1,-1387.3,-1407.4,-1763.5,-2162.6,-1903.9,-1199,-728.25,-1090.3,-1738,-2009.8,-1759.9,-1523.2,-1474.4,-1671.5,-1608.9,-1182.3,-797.97,-885.57,-1453.7,-2060.9,-2039.2,-1365.3,-612.87,33.004,-117.55,-651.52,-539.04,-364.13,-613.56,-1010.2,-1410.2,-1360.2,-664.45,148.36,434.43,229.76,-604.09,-900.6,-627,-783.47,-1323.2,-1876,-1897.2,-1385.6,-1201.8,-1211.2,-1136.3,-1103.6,-879.33,-369.2,-458.42,-1818.8,-2854.9,-2888.4,-1588.3,379.32,834.09,-95.256,-966.43,-1721,-2583,-2907.8,-2757.3,-2705.2,-2385.3,-1508.7,-865.45,-927.6,-1495.4,-1829.7,-2250.1,-2147.2,-1303.5,-1148.2,-1632,-1703.8,-1530.2,-1613.5,-2507.3,-3489.4,-3443.8,-1703.3,12.266,307.06,-39.486,-865.12,-1504.2,-1724.2,-1358.3,-621.68,-1243.3,-3271.3,-5827.1,-7410,-6088.3,-1828.7,1960.5,486.87,-2272.5,-1855.8,468,718.42,-112.9,473.8,240.57,-802.9,-739.02,379.16,1563.2,1464.1,976.02,812.04,235.95,-497.47,-1349.3,-3271.9,-5293.9,-5418.6,-3395.7,-1424.8,-847.05,-1004.5,-1388.3,-1659.4,-1587,-1391.3,-1338.2,-1217.1,-949.11,-974.74,-1073.1,-856.26,-768.55,-1066.9,-1578.8,-2290.7,-2871.1,-2823,-2632.1,-2167.1,-1209,-889.02,-918.63,-924.51,-850.99,-693.09,-340.65,-45.272,-44.444,-511.89,-949.27,-1256.3,-1385.3,-1619,-1616.4,-1286.8,-1229.8,-1487,-1299.5,-1107.4,-958.97,-679.18,-361.96,-63.748,130.16,41.734,-418.04,-1065.6,-1348.2,-1246.6,-922.17,-643.94,-264.95,-155.43,-407.07,-96.093,123.52,-530.47,-1305.9,-1160.5,-642.81,-341.37,-549.97,-874.46,-1156.7,-1405.3,-1559.9,-1632.3,-1471.3,-1251.5,-1156.5,-1127.3,-633.36,-249.44,-89.366,-128.37,-199.6,-366.81,-594.02,-1153.8,-2338.3,-3968.8,-4508.2,-2796.6,-301.7,179.28,-483.84,-1204.1,-1474.2,-1286.2,-874.52,-812.86,-1443.5,-2018.2,-1889.3,-926.87,-636.19,-1463.5,-1906.7,-1866.8,-1494.2,-1194.2,-1255.2,-1603.6,-1820.5,-2242.9,-3726.4,-5502.4,-5430,-4141.8,-3088.9,-2912.7,-1809,400.57,941.34,-216.89,-1403.4,-2553,-3722.5,-6015,-5072.4,16.032,2244,1536.6,-345.32,-3063.9,-4656.1,-3858,-262.15,1741.7,639.81,-687.41,-1130.3,-797.7,-834.62,-1012.8,-1053.7,-1165.4,-1720.9,-2155.9,-2005.4,-1466.5,-854.99,-432.95,-644.57,-1347.1,-1972.5,-2508.9,-2495.5,-2030.1,-1273.8,-658.48,-742.93,-930.43,-1691,-2377.8,-2256.8,-1393.1,-589.01,-3.2751,59.199,-515.41,-1288,-2192.3,-2635.3,-2572.9,-2278.6,-1886.9,-1487.3,-1256.9,-1273.4,-1080.5,-906.14,-864.89,-1121.9,-1264.4,-950.67,-673.31,-668.48,-1104,-2087.5,-2595.9,-2358.5,-1783.8,-823.48,-459.74,-812.72,-1022.8,-1268.1,-1700.8,-1278.7,-105.83,1050.8,1538.7,1221,-160.98,-2689.6,-3946.9,-2813.6,-1311.8,-643.61,-673.06,-716.23,-675.64,-698.39,-639.61,-119.26,381.14,201.08,-1971.7,-4430.5,-4472.5,-1183.4,2652,2250.3,-77.845,-1420.9,-1308.6,-295.8,663,705.86,383.28,-122.17,-114.07,638.93,1544.9,1941.6,1877.5,1205.7,234.76,-256.64,-236.05,9.6073,-707.49,-2861.6,-4423.8,-4256.2,-2536.5,-1259.4,-3974.2,-6337,-3777.2,-2052.6,-2589.9,-1616.7,-556.43,-481.49,-154.15,-194.82,523.61,1289.5,188.5,-793.09,-1564.5,-1847.1,-976.34,195.38,1354.7,-2522.1,-8431,-11510,-12782,-7993.9,1863.3,7067.3,3394,-1038.9,-1770.8,-2690,-2786.5,-837.68,270.47,-307.75,-684.15,-286.52,958.48,1069.2,-2092.3,-3554.9,-2623.8,-2739.9,-2940.3,-2089.3,-1525.2,-999.74,-1418.3,-2686,-2389,-2835.1,-3883.8,-2022.3,-609.66,-505.34,-163.43,-849.49,-2655.8,-5665.7,-8690.9,-5653.2,2566.5,5336.5,1804.7,-2009.1,-3926.2,-7744.2,-8988.1,-4249.6,882.57,2612,2181.9,597.08,-47.792,-217.97,-357.3,2.4889,1322.2,2859.2,4887.1,6768.7,6257.3,2812.7,-921.41,-2573.3,-4121,-6328.3,-5856.6,-4639.7,-4145.2,-1848,1015.6,2715.7,2140,-397.87,-2287.1,-3654.6,-6719.7,-6210,-1380.2,414.1,-583.61,-945.93,-2759.9,-1627.5,4055.4,6102,3329.6,1762.1,1371.6,-310.48,-4518.5,-7813.1,-8505.1,-7412.1,-5140.4,-1713.5,2730.1,3598.5,-216.2,-1719.4,-740.55,-2274.6,-4251.2,-7050.1,-11753,-10180,-2882.3,1849.3,2433.2,2333.8,2634,1811.7,304.16,-101.67,-110.72,-489.91,-258.63,-583.26,-1933.5,-2723.7,-3014,-2429.8,-2187.9,-2042.4,-1318.3,-584,-157.16,-95.123,1327.1,1819.2,-87.434,-1423.8,-1164.6,-798.38,-566.9,220.97,1948.9,2981,947.53,-1868.8,-4842.5,-4917.4,-3430.5,-2089.5,-617.39,778.8,1216.4,1069,1789.4,1144.9,-1549.2,-5312.8,-6011.3,-4645.1,-4935.8,-4548,-3028.5,-4872.3,-6685.1,-5122.2,-2263.8,1464.8,3451,3885.6,4378.8,4393.5,3561.6,2545.5,835.4,-625.71,-2472.1,-4148.4,-4606.2,-4289.5,-3497.4,-4105.3,-6225.4,-6301.4,-4539.5,-6925.3,-10433,-7826.4,-3308.9,-274.51,4401.1,12038,13553,8203.4,1135.1,-2418.5,-2326.8,-1238.4,530.2,1892.5,2267.9,1302.7,-1266.7,-2431.3,-1191.2,-249.33,-882.21,-2102.7,-2564.1,-2118.4,-1121.8,479.16,1296.3,36.375,-768.38,122.71,1540.2,2121.3,1297,1427.9,-493.94,-6304.7,-13611,-16039,-12558,-8335.4,-3808.7,2003.2,5061.2,4444.2,2616.7,758.89,373.46,-3709.7,-7285.5,-3438.2,-1658.9,-3652.1,-4510.4,-4059.5,-1711,1298.6,2096,766.93,68.42,228.41,2337.7,3531.2,3120,2838.4,1237.8,-1549.7,-3326.2,-4348.4,-4737.6,-2616,-601.46,-703.47,-1860.8,-2425.1,-1756.2,-940.45,-1266.4,-1795.4,-1676.6,-923.74,-1012.5,-2200.4,-2919.2,-2428.6,-1438.4,-782.57,-491.78,-840.44,-1960.2,-3286.7,-3815.4,-3492.4,-3207.1,-3645.8,-3051.6,-1585.1,987.64,2685.5,1084.8,-1506.5,-2750,-2592.2,-285.23,2650,3474.9,1600.9,-771.99,-2580.6,-4188,-5925.4,-6769.1,-3642.2,-436.86,656.83,-843.85,-3245.3,-4035.3,-2160.2,-498.05,195.58,-85.167,-857.56,-1053.8,-995.26,-1018.4,-424.97,828.01,1446,1158.3,2510.5,2839.9,-1098.1,-6144.1,-7600.9,-6366.3,-3608.1,-1052.9,-263.59,-571.08,-1251.8,-1745.9,-1762.4,-2002.4,-3511.3,-6019.4,-8161,-9336.4,-8819.1,-4149.2,3077.4,6305.5,4849.3,2577.2,621.42,-637.13,-667.88,-666.63,-665.14,-660.41,-1080.3,-1963.5,-4072.9,-6251.7,-6269.2,-4106.3,-873.28,3897.9,6728,5665.5,2279.6,1273.5,1651.3,951.35,-661.57,-1013.7,-83.675,530.64,140.08,-936.9,-915.13,-587.45,-1102.1,-2070.1,-1593.2,-532.89,199.54,894.67,1007.6,1019.6,733.78,-221.68,-1348.5,-1637.7,-773.05,44.226,412.25,196.32,-1918.6,-3258,-2597.6,-3497.4,-4494.5,-3982.3,-3035.9,-2292.6,-1249.3,28.364,269.97,-965.18,-1231.4,-650.52,-203.38,809.08,428.67,-807.84,-2247.5,-3190.3,-2362.9,-1202,-1113.8,-2198,-3132.4,-4264.9,-3584.8,-1693.1,-937.73,-2641.1,-4528.9,-5305,-4833.7,-3696.6,-1367.9,1180.7,1728.6,458.03,-1054.7,-1783.6,-2449.2,-2673.2,-1492.5,-156.51,63.451,262.24,477.18,121.48,-467.44,-920.69,-1101.3,-1527.1,-1579.1,-1088.4,-999.4,-1139.8,-986.2,-911.98,-1896,-2850.1,-2421.3,-1489.2,-1000.8,-609.59,-297.82,-176.89,-360.07,-439.84,-965.87,-1850.3,-2649.9,-3790.2,-3220,-1939.5,-1591.3,-1767.8,-2559.8,-3339.9,-1071.1,1065.8,1152.7,558.61,-1084.5,-2251.1,-2378.9,-1951.4,-1802.5,-2486.8,-1988.9,-1889.7,-2349.4,-3177.2,-4671.9,-3403.6,-1407.1,-1237.1,-1163.8,-754.7,1197,1843.5,1266.3,778.73,239.9,-450.69,-2104.3,-3483.2,-4348.4,-4192.2,-3406.1,-2320.5,-1540.3,-1934.4,-1731.1,-1905.8,-2755.9,-1465.5,512.57,1294.7,471.91,-432.62,-1925.5,-2486.8,-1601.2,-400.23,497.48,1087.2,786.32,-711.27,-1519.6,-1467.3,-983.91,-1346.9,-2402.9,-2660.5,-2730.4,-2959.7,-2144.2,-508.51,110.1,-449.06,-1266.3,-1652.3,-1589.2,-1191.4,-1243.6,-1590.1,-793.32,829.57,843.01,-151.13,-255.76,-637.07,-1626.4,-1231.5,-127.45,-1176.1,-1091.8,168.52,-754.76,-1286.4,-921.55,-1153.3,-737.57,-255.73,-482.96,-840.5,-966.21,-651.7,-35.764,-218.12,-1968.8,-3246,-3276,-2920.3,-2935,-3270.1,-2308.3,-2370.5,-3649.7,-3927.4,-1621.9,1401,1064.2,161.2,579.54,-40.188,-1360.5,-1759,-1585.2,-1160.4,-1446.3,-1996.3,-2242.5,-2001.3,-1744.8,-1478.5,-1160.6,-923.48,-651.45,-986.12,-662.27,-318,-1335.2,-2034.1,-909.81,867.1,1394.8,1080.9,587.33,-232.72,-1511.9,-3519.4,-5048,-5151.2,-6226.3,-6622.5,-3999.3,-1146.3,-381.88,-18.959,367.72,-578.19,-3990.6,-7549.6,-8428.4,-7492.1,-5280.9,246.08,7286.6,9168.5,6519.5,3283.2,1008.2,-1268.4,-3373.6,-4460.8,-3041.3,-767.51,86.196,1286.4,1497.9,1891.6,2862.7,1929.8,-28.754,-2950.3,-4862.5,-4036,-2326.4,-1802.2,-1995.7,-2546.7,-2089.1,-1376.1,-1401.3,-712.84,-535.15,-238.61,133.51,36.841,-586.53,-1151.4,-1056,-1114.9,-1797.7,-1925.7,-348.98,1262.7,-357.16,-2777,-3068.9,-3003.7,-2877.2,-830.13,-26.798,-746.81,-1234.5,-1923.7,-2122.9,-1755.4,-2362.9,-2968.6,-2525.7,-2654.6,-2258.3,-808.39,7.8639,-163.7,-281.9,-490.36,-629.82,-728.33,-304.86,441.22,814.26,789.87,573.26,-413.03,-2677.4,-5413.7,-6311.1,-4463.1,-1694.4,-692.07,-968.83,-1089.3,-1179.6,-1505.7,-1823.2,-2098.7,-1999.7,-1725.6,-1125.8,-823.78,-632.93,-590.37,-606.91,-678.45,-1024.3,-1436.3,-1218.2,-988.4,-840.9,-1024.6,-1219.5,1061.3,2862.5,791.97,-1811.6,-2858.6,-3193.3,-3148.4,-3435.1,-3166,-3016.7,-3201.2,-1059.4,315.62,-18.521,-637.58,-654.01,-428.58,-915.1,-1901.5,-2398.6,-2256.2,-1819,-959.06,-153.89,-375.81,-925.27,-1588.5,-1762.8,-1405.3,-796.52,-981.4,-1248.9,-2091.6,-3566.3,-2306.4,-1527,-2219.1,-2446,-2582.9,-2230.7,-1750.5,-1692.1,-1250.9,-495.42,-139.95,-175.39,-659,-1842.6,-2734.8,-3013,-3085.6,-3633,-4359.8,-5061.5,-5473.3,-3522.3,64.298,2463.3,2932.8,1004.7,-192.67,616.39,-1046,-2606.5,99.9,2584.5,2416.9,430.69,-1847.3,-3519.9,-4230,-3336.9,-2509.9,-2041.1,-1740.7,-1371.3,-822.03,-652.78,-705.11,-959.86,-1702.3,-1663.2,-1468.1,-756.37,731.36,1238.6,595.57,-610.78,-2458,-4071.1,-4114.3,-2519.9,-1304,-764.6,-676.24,-723.47,-711.19,-698.4,-425.93,-194.97,-600.01,-2192.9,-2515.8,-2014.4,-1563.7,-1230.2,-811.91,-1106.5,-1767.8,-1647.6,-1016,-1726.3,-1691,-202.83,229.3,-134.95,-702.54,-1113.8,-2546.1,-1275.5,1213.4,297.14,179.27,-428.32,-1340.8,-1098.1,-828.6,-1630.1,-2608,-2097.8,-1049.6,-260.68,-18.01,-263.45,-1070.7,-1917.8,-2312.6,-2147.1,-1819.2,-1366.2,-851.17,-365.94,-177.44,-70.931,24.273,-137.06,-360.88,-272.18,242.79,390.8,-270.01,-1347.6,-2102.2,-2186.8,-1885.2,-1278.5,-710.55,-527.19,-298.67,68.081,180.93,-97.264,-397.5,-287.15,132.91,773.66,1043.5,308.96,-930.66,-1694.2,-1956.4,-1589.2,-952.63,-538.81,-117.93,43.64,125.61,72.268,-295.76,-555.76,-483.57,-570.62,-823.9,-1164.1,-1452.2,-1491.5,-1363.7,-1510.8,-1621.8,-1627.5,-1460,-1433.6,-1577.6,-1564.7,-1271.8,-1043.2,-1078.2,-1209.8,-1533.3,-1671.2,-1235.9,-665.76,-731.74,-1109.1,-1427.7,-1428.7,-1279.7,-1187.9,-962.42,-904.39,-965.77,-701.7,-295.34,-219.85,-372.03,-710.19,-875.53,-799.56,-857.12,-950.34,-1186.2,-1691.7,-1671.9,-1661.7,-1752.7,-1709.9,-1560.1,-1136.6,-795.82,-623.83,-559.4,-705.59,-948.28,-996.84,-989.52,-1104.4,-1547.8,-2013.1,-2332,-2318.9,-2145.7,-1980.9,-1706.6,-1524,-1179.4,-677.6,-359.47,-597.92,-1049.7,-1185.8,-1035.3,-916.18,-1068.4,-1597.8,-2120.7,-2293.6,-2352.6,-2100,-2033.3,-2073.8,-1734,-1183.6,-783.71,-687.15,-850.38,-1331.1,-1537,-1277.5,-1122,-1514.6,-2225.6,-2822.7,-2991.5,-2818.3,-2628.4,-2376.9,-1895.4,-1349,-707.55,-340.95,-608.58,-1130.4,-1426.9,-1337.7,-894.68,-853.46,-1369.1,-2036.8,-2680.1,-2765.7,-2486.6,-2285.6,-2043.4,-1542.4,-660.93,1.6708,130.7,-397.82,-891.4,-1090.5,-781.32,-549.88,-888.08,-1840.5,-2797,-3245.4,-3200.7,-3041.7,-3078.2,-2897.8,-2381.9,-1713,-594.99,-284.84,-428.83,-76.495,112.8,533.76,696.93,-259.87,-1556.7,-1919.5,-1694.6,-1260,-907.91,-1317.1,-1825.6,-1659.3,-697.73,-97.171,-208.2,-23.818,971.28,1417.5,1222.2,667.94,-447.13,-1994.6,-3148.7,-3380.6,-3289.1,-3279.4,-3015.1,-2102.4,-360.47,772.51,-135.65,-1960.7,-3024.4,-2903.7,-2148.1,-779.65,589.84,62.517,-360.43,772.46,419.86,-907.23,-1690.2,-1953.6,-2524.7,-4659.2,-8144.5,-12319,-13891,-12117,-5291.2,3171.5,8277.5,9832,10040,8741.9,4744.2,2378.8,1654.4,1044.9,1270,2274.1,2831.3,1860.5,97.56,-1385.6,-1974,-875.18,1408.5,2487.3,1666.9,331.49,-966.69,-2404.2,-2852.7,-2322.9,-1309.9,19.473,1444.3,1940.2,149.48,-3140.4,-6209.6,-7687.5,-6401.7,-3429.1,-336.38,2265.8,4864.8,4155.7,658.73,-1581.5,-2546.2,-1925.2,-1241.1,142.84,939.88,839.25,1254.7,1264.3,-278.84,-5294,-11009,-13944,-11204,-3920.7,4962.6,9515.9,6541.4,-5.8028,-6415,-9679.5,-9819.9,-6897.6,-2141.7,1208.9,3374,4525.5,2950.2,-3531.2,-12463,-15802,-14957,-19321,-19710,-8940.7,4529.1,5010.2,-1592.1,-8392.3,-11137,-1447.1,12098,10897,3824.3,-1547.6,-3254.7,-3367.7,-1461.1,2242.8,4329.3,5246.8,6749.6,2625.2,-10526,-17736,-8558.9,3769.2,2963.5,-5858.3,-13657,-17832,-15063,-3622.7,9263.4,12449,8051.4,4994.3,4676.1,4387.2,3844.2,4354.3,5063.7,4528.7,1878.8,-1122.4,-2695,-2378,-1257,-2902.2,-4916.8,-2661.1,2116.1,3520.6,865.96,-1237.2,-932.76,380.76,1302.2,1717.2,1776.8,463.92,-771.63,-786.28,-226.48,-401.22,-1369.3,-2070.9,-1954.9,-2188.8,-2327.2,-1899.3,-1287.4,-535.86,641.91,1820.3,2140.8,1164.3,-109.22,-457.91,421.42,1443.5,1595.6,302.21,-1659.7,-3218.4,-3694.3,-2740.3,-1456.2,-201.52,1078.9,1746.1,1177.6,-966.6,-3230.8,-4226.2,-3555.5,-1794.2,-483.01,-598.33,-1939.9,-3204.7,-3415.4,-3068.6,-2803.1,-2621.1,-2331.4,-1871,-1269.8,-783.14,-1331.1,-2529.6,-3114.2,-2506.8,-1513.8,-1060.7,-1180.3,-1132,-1011.8,-1733.5,-2577.9,-2985.8,-3080.6,-2606.9,-1626.8,-1165.9,-1488.1,-2317.2,-2895.6,-2559.6,-1172.6,192.49,107.12,-598.28,-1213.1,-2369.8,-2915.2,-2871.1,-3068.8,-2849.1,-934.77,1074.6,1273.5,233.5,-1131.1,-2013.7,-1842.5,-992.98,-502.55,-888.06,-1653.3,-2451.2,-2796,-2537.3,-2374.6,-2529.4,-2270.3,-1216.6,-616.48,-794.46,-1266.4,-1787.3,-2123.8,-1664.9,-318.89,537.8,-366.48,-1422.3,-1593.3,-1421.8,-1519.5,-1967.8,-2407.8,-2215.5,-978.08,56.185,424.79,506.93,-493.42,-1365,-1715.4,-1803.1,-1595.4,-1455.1,-1289.6,-869.49,-846.56,-1182.2,-1716.9,-2327.5,-2529.6,-2051.4,-1458.4,-744.56,-72.641,-237.98,-713.68,-222.36,437.51,-18.079,-988.24,-1989.7,-2254.8,-2531.9,-2262,-1626.2,-911.5,258.62,663.9,-69.275,-990.04,-1538.5,-1387.5,-608.42,-220.61,-328.74,-1231.6,-2672.6,-3439.4,-3439.4,-3974.5,-5131.5,-5002.5,-4589,-4237.2,-2492.1,-218.91,1722.8,2991.7,3081.9,1672.2,172.26,-1244.5,-2738.8,-3592.9,-2627.6,-155.87,1681.4,1133.6,132.51,-1580.6,-2701.4,-2926.3,-2388.9,-1228.7,-148.06,-74.601,-1572.9,-2076.8,-1830.6,-1197,879.11,2827.7,2642,804.73,-646.16,-1118.2,-1242.7,-1804.3,-2719,-2996.2,-2473.1,-1940.8,-1693.8,-1194.8,-934.08,-977.08,-1129.5,-1250.4,-924.26,-910.15,-1353.9,-2268.5,-3033.6,-3377.8,-3426.4,-2853.1,-2233.3,-2362.5,-2873.4,-2970.4,-1584.3,-584.13,-1148.4,-1938.9,-2124.2,-1345.9,-52.5,515.86,-437.48,-1933.8,-3269.4,-4024.3,-4415.4,-5520.7,-8498.6,-10514,-9790.8,-5266.9,786.16,4975.5,5712.6,3055.8,411.18,-74.995,1085.2,1916.6,1794.6,1114.3,389.46,-273.51,-1291.2,-2059.7,-1953.5,-1031.4,-284.07,-101.79,30.704,658.92,1436.4,1378.9,421.32,-844.06,-1610.9,-1748.7,-1297.2,-647.61,-844.86,-1844.5,-2122.3,-516.37,1011.4,182.21,-314.93,665.27,1112.7,151.75,-2552.7,-4710,-5211.3,-5366.3,-3379.1,632.45,908.24,-1552.1,-2718.9,-2973.6,-3003.8,-890.92,2194.1,2910.7,-1676.7,-7415.7,-10004,-10234,-5409.3,117.35,1189.6,-1583.8,-2846.4,-641.48,903.9,1283.6,3444,5963.2,6008.5,4471.6,3898.3,3747.8,1815.1,-51.629,-2552.4,-4140.2,-3862.2,-2810.9,-2050.4,-555.93,986.32,1096.2,764.11,1424.8,2320.4,1202.7,-1853.9,-2803.9,-1858.6,-1558.9,-2758.3,-3835.2,-4498.8,-4315.7,-3679.7,-2118.5,227.75,2075.9,3885.4,3834.6,710.77,-3270.3,-4984.5,-5164,-4315.5,-2301.8,592.91,2329.2,2666.3,2117.8,289.62,-1856.7,-2862.5,-2404.1,698.49,4159.4,3999.1,