1999.9,1703,1694.2,1429.9,1023,893.96,1147,1738.3,2195,1938,1403.4,865.51,618,295.48,181.62,305.27,300.41,297.29,196.44,13.235,-160.31,105.3,271.73,354.36,702.87,689.95,322.77,209.09,-95.522,-705.03,-1029.2,-1096.9,-1249.5,-1362.8,-1641.9,-1896,-2078,-2132.3,-2133.4,-1884.7,-2027.2,-2295.3,-2203.7,-2310.7,-2640.8,-2748.1,-2478.3,-1965.2,-1836.2,-2136.3,-2128.8,-2218.9,-2583.6,-2944.4,-3324.8,-3382.7,-3245.7,-3560.9,-3628.9,-3897,-4337.7,-4363.6,-3858.7,-3875.7,-4059.2,-4158.1,-4258.1,-4423.4,-4954.9,-5560.8,-5994.4,-6156.4,-6067.8,-5328.5,-5411,-5966.4,-6360.1,-6597.8,-6342.6,-5934.4,-5881.8,-5908.5,-5857.2,-6016.2,-6242.7,-6489.5,-6485.9,-6387.1,-6124,-5667.4,-5872.8,-6178.1,-6157.5,-6465.1,-6288.8,-5906.1,-6066.3,-6502.4,-6441.8,-6163,-5722.1,-5337.2,-5427.2,-5577.8,-5585.5,-5539.5,-5733.4,-5831,-5534,-5016.6,-4689.2,-4434.6,-3963.2,-3793.6,-4027.3,-3945.7,-3932.6,-4143.6,-4047.1,-3931.3,-4240.3,-4181.4,-3741.2,-3803.5,-4180,-4211.4,-4109.3,-4050.1,-3419.8,-2776.5,-2810.2,-3253.1,-3586.9,-2757.6,-1642.2,-1087.6,-1070.8,-1530.1,-1819.5,-1967.6,-1889.1,-1776.6,-1586,-1073.1,-267.03,265.8,582.41,472.04,26.875,-65.773,93.967,376.15,899.72,1061.3,1340.9,1645.6,1847.6,1689.9,1253.6,1004.7,1205.1,1671.5,2267.6,2758.8,3092,2901,2705.3,2653,3079.9,3329.5,3012.2,3002.6,3054.1,3001.9,3176.3,3180.6,3166,3344.6,3957.9,4200.7,3461.8,2557,2672.4,3032.5,3293.8,3556.1,3700.8,3677.2,3784.7,4254.5,4330.9,3851.2,3612.9,3897.8,4401,4729.2,4600.3,4188.5,3763.8,3571.4,3652,4038.6,4549.9,4568.2,4695.3,4598.7,4080,3480.6,3362.8,2924,3248.4,3872.5,4334.5,4400.1,3611.2,2734.9,2612.9,2876.9,3757.1,4396.8,3789.3,3476.5,3454,3218.5,2989.3,2836,2629.5,2241.8,2223.5,2194.3,1788.7,1191.9,1143,1361.9,2297.5,2886.1,2385.4,1940.2,1518.2,854.46,118.95,-511.97,-754.51,-382.52,453.04,611.56,228.99,-187.54,-1145.1,-1541.7,-1456.3,-1196,-834.94,-1428.4,-2113.3,-2056.4,-2019.1,-2306.2,-2612,-3060.2,-3186.4,-2832.8,-2629.4,-3082.8,-3984.6,-4361,-4257.9,-4236.9,-4171.4,-3955.9,-4058.3,-4291.6,-4340.7,-4860,-5500.3,-5608.1,-5849,-6369.4,-6901.4,-7330.7,-7311.3,-7075,-6758.8,-5978.7,-5489.1,-5585.3,-5684.6,-5908.2,-6421.4,-6747.8,-6961.1,-7338.3,-7683.1,-7971.1,-8081.1,-8295.1,-8734.8,-8840.7,-9028.5,-9296,-9456.5,-9428.8,-9387.7,-9659.8,-10151,-10543,-10461,-10674,-10717,-10682,-10076,-9290.5,-8710.4,-7968.6,-7845.1,-8264.4,-9027.7,-9314.2,-9910.5,-10209,-9862.9,-8911.3,-7963.6,-8234.4,-9089.1,-9069,-8357.2,-7540.6,-7320.5,-8568.8,-9426,-8687.4,-7988.6,-7764,-8612,-9224.3,-8829.6,-8183.5,-7717,-7144,-6994.4,-7187.9,-6502.6,-4272.1,-2651.3,-2518.8,-3182.1,-3604.3,-3513.8,-3810.8,-3982,-3746.1,-3347.8,-2828.4,-2540.7,-2837.6,-2605.8,-1418.6,-307.11,303.84,177.45,34.446,-251.81,-871.32,-241.68,289.93,-422.14,-726.36,-317.9,1016.5,3065.8,4119.1,3512.4,2838.2,3376.1,3967.9,3771.2,3487.9,3079.9,2884.5,3337.8,4178.5,4698,4817.7,5256.1,5392.4,5013.1,4795.8,4045.4,2975.9,2602.7,2629.7,2725.7,4583.2,8086.1,11445,13625,12998,11629,11085,10798,10205,10217,10683,11668,12306,12239,11927,12298,13249,12437,9580.4,6581.5,5510.2,7366.6,10142,11514,11791,11414,11804,12733,12855,12338,11808,11697,12228,12334,10213,7948.7,7641.7,9177.5,10928,11595,10642,9174,8615.3,8886.9,9380.3,9337,8494.8,8112.2,9003.6,9503.9,8626.8,6366.7,4651.1,4298.9,4634.6,5755.3,6437.4,6075.8,5495.8,4862,4661,4807.5,3303.3,1759.1,1383.3,1726.4,635.74,-1498.4,-3108.6,-2675.5,-1104.9,922.51,2106.1,1871.3,408.66,-1476,-2222.3,-2031.6,-1806.9,-2099.4,-2692.5,-3063.9,-3921.8,-5737.7,-7775.2,-9295.4,-10092,-8618.3,-6337.5,-5548.1,-6194.3,-8934.1,-11291,-12019,-12026,-12372,-12699,-12465,-11054,-7830.8,-6217.9,-9784.6,-13813,-15981,-16562,-15660,-15368,-17421,-20027,-22244,-22404,-20931,-19406,-18826,-19117,-20675,-22689,-23549,-21598,-19415,-19123,-19865,-19752,-19354,-20246,-19798,-19083,-19964,-20286,-18994,-17567,-17415,-18511,-18962,-19791,-19813,-18122,-19144,-23023,-26229,-30448,-32900,-31168,-24973,-16057,-9703.2,-1772,8580.8,17557,21763,18944,12680,999.4,-8967.7,-5859.3,3665.4,13374,24175,39975,49549,39567,26505,11614,-5007.7,-18058,-29970,-41378,-53658,-69674,-84796,-94232,-1.0257e+05,-1.1675e+05,-1.3459e+05,-1.4109e+05,-1.3883e+05,-1.4744e+05,-1.641e+05,-1.7305e+05,-1.673e+05,-1.4453e+05,-1.2073e+05,-99850,-75890,-45180,-663.55,36298,54612,63999,74581,82691,85201,87616,94221,1.065e+05,1.2355e+05,1.372e+05,1.3873e+05,1.3238e+05,1.2327e+05,1.1616e+05,1.0849e+05,1.0518e+05,1.0405e+05,1.0445e+05,1.0312e+05,98790,91594,84204,80984,79076,74504,70172,69721,68847,63924,55546,49586,50929,54782,54804,57845,64062,58441,52238,51456,50405,49146,45876,39762,37605,41876,51496,60675,56738,46596,44223,41484,33314,43504,64652,57995,40903,42690,51095,60244,64415,45286,28796,25599,21763,14389,1695,-8702.5,-12685,-16677,-23187,-26192,-20207,-10271,-11437,-21525,-40999,-58922,-74043,-89964,-1.0458e+05,-88835,-49199,-29730,-41934,-56848,-54823,-53641,-54338,-48377,-42796,-40065,-38649,-38204,-41969,-50618,-60475,-73350,-90793,-1.0573e+05,-1.2178e+05,-1.4244e+05,-1.6045e+05,-1.7377e+05,-1.8411e+05,-1.8922e+05,-1.9099e+05,-1.9048e+05,-1.8264e+05,-1.6889e+05,-1.5297e+05,-1.3518e+05,-1.21e+05,-1.1152e+05,-1.096e+05,-1.0418e+05,-95564,-87062,-72738,-53127,-36813,-29934,-23245,-10566,-15133,-21779,-10125,-6595.2,-7835,-4411.6,1724.4,13579,24459,22898,19055,19700,25756,32779,36821,39734,42536,44487,44686,41464,40679,47956,59563,67562,68308,66150,64741,60277,57053,58497,59241,57281,52895,50654,47386,40738,36243,34990,37654,46110,46663,33038,39608,69966,79117,63161,57992,55780,52221,49256,47100,46337,45340,44679,44421,42732,38733,33584,28670,26784,31036,38546,42539,40077,36970,36297,34693,33597,33777,32852,29101,24375,19023,15029,14138,16626,20584,26685,24739,6156.1,899.92,9419.2,17315,16661,12662,13569,14656,14252,13887,12694,9693,2085.4,-6143.4,-13320,-18666,-13278,-6120.2,-5382,-8592,-11089,-9464.1,-9069.2,-12527,-17505,-20458,-20694,-18750,-16746,-12967,-13732,-18910,-20512,-19158,-19943,-21848,-21544,-21188,-22006,-21149,-18224,-16928,-18199,-19679,-21314,-23228,-25628,-28009,-28396,-27889,-27287,-26857,-28535,-33087,-33296,-30114,-26617,-27747,-27521,-21598,-14641,-9278.1,-10574,-23282,-29615,-21095,-16733,-16523,-16614,-16734,-15600,-13501,-13293,-15558,-16999,-16730,-14997,-13289,-12718,-15973,-22261,-21358,-17331,-17436,-23660,-26303,-21833,-16643,-14183,-12778,-10334,-8744.9,-10338,-11313,-11562,-13214,-14506,-13271,-11216,-8065.1,-4577,-4807.2,-6510.5,-5721.8,-6220.6,-6754.5,-7402.1,-8596.8,-8790.1,-5009.9,-740.63,-5428.7,-9927.3,-5906.3,170.15,1233.9,1402.3,3051.5,7186.3,10548,12054,7733.9,156.47,-634.55,2230.8,5142,8670.6,12084,13276,11299,10079,8622.2,3329.8,904.13,1769.5,3475.2,4152.5,5432.9,8186,9989.4,6468.3,4914.9,3775.2,2535.1,3474.9,3258.6,4101.2,5725.2,7512.1,10699,16390,20495,15891,3338.3,-7944.7,-5897.3,2376.2,9620.3,9078.5,6980,6347.3,5792.9,4951.9,4668.6,5222.3,5500.6,6331.4,9102.5,8908.8,6019.1,2113.7,1721.1,6327.3,12550,18217,20283,11682,3258.4,6609.1,12560,11798,8681.1,8625,9050.3,7823.5,6859.2,7271.3,6850.7,7083.4,7779.9,4620,2361.2,3700.5,5067.4,5400.3,5453.4,7065.2,9600.1,9580.8,7304.1,3542.2,851.63,439.13,3939.6,8280.8,2885.7,-3616.1,-2768,-1776.4,-132.37,5130.3,12471,13527,10336,7454.5,1928,-1533.8,-18.825,1623.9,2224.1,2195.6,1123.2,-158.5,-3189.5,-5821.2,-4890.7,-3562.7,-1915.6,321.53,1461.8,1566.8,674.81,-3704.4,-10343,-7222.4,-2053,2454.8,3336.9,2144.4,688.36,-1165.8,-3123.2,-5646.6,-7340,-8567.9,-10273,-10098,-6811.6,268.9,9238.5,13876,5876.9,-9253.9,-12506,-8570.2,-6791.1,-7335.9,-6098.2,-2312,-1365,-1756,-2605,-2213.5,-2063,-4312.7,-7600.5,-13686,-18791,-15933,-12455,-10699,-7762.1,-6302.7,-8423.9,-12923,-15054,-14426,-14208,-13191,-11071,-10364,-9763.7,-7065.7,-4211.9,-5838.3,-8327.1,-8452.5,-8546,-8795.7,-8082.5,-5818.3,-5554.1,-7022.9,-8375.2,-8876.6,-10102,-13076,-14243,-11469,-8988.6,-8013.7,-6753.4,-2914.2,-2098.5,-3449.8,-4073.6,-3079.1,2992.5,4446.1,-189.47,-15195,-22815,-14252,-1751.8,5175.6,-1138.7,-8170.2,-4283.1,401.14,-895.4,-2960.7,-3975.9,-5487.4,-6704.1,-6491.9,-3741,-2114.4,-3315.7,-4838.8,-4964.4,-4826.8,-5738.7,-4994.2,-4475.9,-4414.1,-3545.5,-2292.1,-1265.6,-302.88,-629.63,-1266.7,-1580.1,-1561.7,-1399.8,-1257.4,-1740.6,-3140.2,-4057.9,-3898.8,-1442.7,1349.7,2092.1,1448.1,1183.4,529.28,-1055.2,-2659.8,-2846.2,-1960.8,-1572.8,-245.56,2058.4,3006.3,4312.4,4258.7,2049.8,2512,3411.3,4749.8,5628.3,6088.9,5419.4,3457.5,5593.5,8504.1,9426.7,8008.3,2491.3,-1533.6,-1051.2,933.73,2074.1,-2859,-6359.7,-3331.1,2604.9,6609.4,10242,14365,12737,3963.1,824.04,6098.4,9082.1,7299.9,6318.4,6026.5,4745.7,4319.2,4576.6,3828.7,2742.2,1985.1,2611.2,6133.2,11178,14007,14542,9342,3367.4,2104.6,3528.2,7043.6,7339.6,821.02,-6677.6,-5241.4,-2660.7,-1381.9,1707.9,3957.5,5382.9,5549.2,4383.3,3553.3,4199.9,4796.8,4343.1,3249.9,2396.6,1598.9,1259.4,1266.8,1213.3,228.57,-1648.6,-3237.9,-4305.1,-4633.9,-3912.7,-2289.3,-244.95,807.31,293.65,-39.654,647.95,898.66,1895.6,4183.4,5527,5405.9,2621.3,-6605,-10795,-8114.4,-4438.4,-4622.9,-7211.2,-7642.3,-4129.8,559.09,4511.6,4986.5,2733.3,1770.6,529.01,-3513.8,-5420.6,-5374.6,-5611.4,-7765.9,-10310,-12710,-13049,-11153,-5599.9,-149.28,-1870.5,-1657.7,903.87,1224.5,258.56,-267.21,-1077.9,-1632.2,-3395.1,-5499.2,-10421,-8749.5,-3065.5,-2557.7,-8140,-11595,-6804.3,-2251,-2914.9,-8359.3,-14109,-16674,-10205,-5573.7,-4901.5,-3042.1,-6234.3,-6014.8,-4988.4,-11250,-14988,-10530,-7950.5,-8787.2,-8497.5,-5770.5,-3938.2,-5062,-6459.9,-6733.9,-6444.2,-6403.9,-5823.6,-4394.7,-3765.6,-4807.3,-5581.2,-6455,-7280.6,-6838.1,-7879,-9002.4,-7945.2,-7115.2,-4963.2,-1171.4,33.823,-954,-1268.7,-1149.9,-322.51,364.71,-461.16,-1575.3,-1334.6,-942.67,-469.9,204.91,405.68,-1428.8,-3556.9,-4022.1,-2891,-1662.4,-1100.5,-245.55,486.05,878.23,914.54,-417.7,-1573.4,-4444.4,-6474.4,-3821.3,-1646.4,-971.33,1337.4,5407.9,8337.6,4695.8,1360.9,3406.8,5173,5437.8,3677.1,-2515.6,-6221.2,210.93,6993.7,6734.2,1607.6,1704.8,4214.3,4269.6,3592,3366.3,2256.1,931.62,36.054,329.02,1483.8,1386.5,8.4454,-1681.8,-1915,-1165.5,-931.08,-1074.6,-1953.9,-5683.4,-6573.9,-3865.2,-1382.1,909.57,4613.7,7992.2,8810.6,7497,5737.5,3523.2,1061.6,1877.7,4630.2,4931.6,3099.4,1612.3,686.42,-753.91,-2305.5,32.035,1998.4,-1655.9,-2137.4,-3379.1,-4365.1,-4717.9,-4823.3,-4491.6,-4470.9,-4286.6,-4091.5,-3796.4,-3610.1,-3743.7,-3812.6,-3990.4,-3969,-3458.4,-2796.8,-2664.4,-2509.2,-2271.2,-2452.7,-2958,-3634.8,-3989.9,-4046.7,-4337,-4774.5,-4106,-3483.6,-3042.5,-2775.1,-2555.6,-2407.9,-2209.3,-2022.5,-2103.7,-2476.3,-2987,-3506.3,-4068.9,-4394.2,-4715.3,-4802.2,-4922.2,-4927.2,-4379.2,-3985.6,-4557,-4775.8,-4002.6,-3350.4,-3159.6,-2672.1,-2217.1,-2303.2,-2788.4,-3015.1,-3147.3,-3617.8,-4109.5,-4299.1,-3686.6,-3104,-2987.3,-2750,-2711.3,-2384.4,-1853.8,-1950.4,-2520.9,-2845.6,-3105.9,-3250.5,-3205.7,-3501.3,-4211.8,-4772.2,-4572.7,-3327.4,-1617.5,-364.34,-224.16,-490.04,37.268,979.54,1592.4,655.97,-2205.2,-4489.4,-4649.5,-3702.6,-3087,-3118.8,-3260.1,-2705.9,-1724.3,35.661,1426.7,1222,757.34,1344,2081.4,2219.7,1498,780.33,691.31,1022.9,1071.5,100.5,-1220.3,-2225.6,-4386,-5385.7,-3216.3,-627.98,603.11,1376.5,2294.9,2888.2,2535.1,1524.8,561.22,246.03,445.8,439.99,968.45,1472.2,1990.2,2855.4,3700.3,3890,3926.7,4037.1,4491.4,4917.4,4990.7,4331.6,3449,3167.8,3023.3,2146.7,1041.1,149.49,126.26,1124.4,2370.7,2981.8,3094.4,2666.7,2472.7,3247.1,3809.3,3597.3,3497.9,3310.2,3015.6,2545.8,1883.7,942.68,236.72,349.74,1129,2094.6,2490.1,2312.6,2183.8,2397,3027.5,3702.7,3377.4,2318,1238.6,725.62,-282.7,-2110.5,-3287.2,-2938.5,-1954.9,-545.71,491.24,326.48,-177.77,-432.55,-314.34,488.29,1234,1395.2,1387.3,1215.4,747.09,-744.94,-2744.7,-3877.4,-3796.9,-3105.5,-2134.6,-1498,-1806.3,-2499.7,-2767.9,-2358.1,-1501.1,-1121.8,-1151.6,-1253.8,-1179.8,-1517.4,-2718.8,-3884.5,-4584.5,-4348.5,-3435.3,-2942.7,-2870.5,-3069.9,-3317,-3171.9,-2818.5,-2926.9,-3366.7,-3760.1,-3924.3,-4080.3,-4394.7,-4992,-6041,-6340.2,-5548,-4326.2,-3554.7,-3937.7,-4590.8,-5209.8,-5208.7,-4929.6,-4828.7,-4992.9,-5197.7,-5287,-5405.9,-5822,-6668.1,-7439.5,-6972.3,-6093,-5546.1,-5348.2,-5528.5,-5821.4,-5911.7,-5564.8,-5328,-5427.9,-5645.8,-5387.5,-5413.2,-5626.4,-6119.5,-6606.6,-6282.7,-5421.8,-5235.1,-5214.8,-5046.7,-5379.5,-5887.1,-6016.4,-6174,-6588.1,-6672.4,-6458.9,-5920.4,-5564.1,-5197.8,-4775.4,-5095.1,-5168.4,-4655.5,-3993.9,-3963,-4018.4,-4001.4,-3814.9,-3753.4,-3933.5,-4118.8,-4321.5,-4503.4,-4176.1,-3749.2,-3304,-2721.5,-2254.7,-1710.8,-1496.6,-1303.4,-1665,-2327.6,-2619.5,-2805.8,-2843.2,-3242.4,-3312,-2786.9,-1915.3,-952.03,-74.306,1225.2,2789.8,3768,3667.1,2704.4,1653.6,894.76,216.65,77.85,-139.48,-936.39,-1392.5,-892.16,-20.304,1150.3,2297.1,2969.4,3563.9,4346.4,4978.9,4792.1,3733.5,2530.7,2102.3,2031.7,1948.2,1634.7,873.16,201.97,782.79,2143.5,3459.2,4276.3,5595.7,7013.4,8016.7,9367.7,9664.1,7547.2,4161.3,2013.7,1944.6,1803.6,807.51,807.11,2486.4,4754,6918.4,8806.7,8460.8,7404.6,8381.6,9800.7,10292,9182.9,7405,6392.2,5964.9,5409.8,4303,3044.6,2216.1,2598.2,3945.2,4933.2,6098.6,8178.2,9689.6,10586,10758,9596.8,7374.4,5061.2,3854.5,3696,3750.8,2870.2,1429.2,770.16,1370.2,2588,3218.1,3400.9,4533.8,6377.3,7869.3,8080.6,6514.7,3781.4,1404,381.91,19.581,-970.64,-2526,-4149.7,-4323,-3286,-2105.6,-739.59,-161.8,-569.64,-1534.1,-2084.5,-2721,-3382.8,-3929.5,-3395.3,-2057.2,-3306.8,-6028.2,-8689.5,-9911.1,-9055.6,-6045.8,-3828.4,-4114.9,-3840.9,-1076,1214,1780.9,2.4799,-3607.8,-6685.2,-7939.2,-8216.9,-8772.1,-10504,-12127,-12871,-12585,-11724,-11389,-11099,-9594.3,-6617.5,-3269.8,-3118,-7151,-12392,-14933,-15198,-15659,-16572,-18018,-19840,-21051,-19029,-15409,-15180,-16282,-12342,-7008.9,-4855.4,-6240.6,-11440,-16725,-17502,-15572,-15658,-17369,-18863,-18753,-19164,-19929,-19105,-15805,-12967,-10199,-11219,-17432,-22773,-29560,-29852,-25141,-22317,-22262,-23832,-24848,-23559,-16690,-7206.1,3227.5,13305,14309,3369.2,-8369.9,-14860,-26850,-36666,-31618,-19983,-22884,-40542,-49452,-45295,-41889,-45600,-44489,-28228,-8337.1,8561,13829,13144,10600,7764.7,8542,12243,21628,32163,38519,41248,39225,36344,29478,17716,2187.8,-5869.7,5220.4,17200,26260,49625,81105,91340,78411,68915,83848,1.1132e+05,1.2408e+05,1.2472e+05,1.2038e+05,1.1281e+05,1.0001e+05,80744,62708,64740,72796,68360,56850,47247,41660,30513,10705,33797,69825,72501,66501,62460,51845,18327,-4689.8,-10331,-15960,-13326,-3772.3,8347.5,19781,17131,-265.51,-16954,-33008,-42880,-39937,-31018,-19575,-15888,-23288,-52470,-92364,-1.15e+05,-1.169e+05,-1.0781e+05,-1.0711e+05,-1.1351e+05,-1.0683e+05,-88487,-80611,-83827,-87485,-1.0053e+05,-1.3421e+05,-1.5039e+05,-1.4116e+05,-1.3567e+05,-1.3977e+05,-1.4228e+05,-1.4314e+05,-1.3427e+05,-1.2069e+05,-99791,-65898,-35605,-18207,-8272.3,2425.5,9241.5,8029.3,15034,36906,51665,51062,51355,59968,65558,65624,66644,70404,75066,61266,26012,8145.3,8338,4290.1,-370.52,-6551,-9481.8,-4311.8,4671.1,18024,42289,58647,52884,34443,26844,35971,42233,33212,19506,17369,25900,27244,10539,8773.5,31942,38244,22277,8191.2,-2057,-2014,17591,36271,46613,52155,51465,46690,34419,29564,37857,47165,56649,66617,68454,59775,45709,29392,11054,-2073.9,-3416,-3423,-13807,-19557,-11673,2218.1,3463.5,-14374,-33034,-33410,-20187,-17899,-23471,-27112,-36152,-54549,-68428,-69301,-64754,-63329,-62742,-60045,-52357,-38196,-18803,-4661.2,259.84,-2328.8,-15343,-29561,-25255,-14676,-12857,-10532,-9390.9,-10875,-4926.5,9250.4,9516.9,5427.3,4046.6,-362.86,-4328.4,-9562,-20743,-21409,-2903.9,8527.2,1467.4,-8415.1,-12449,-16758,-23393,-20086,-7484.4,6096.5,6641.5,-2034.8,-12600,-23424,-25965,-21539,-10439,6054.4,9365.9,680.24,-553.47,8068.5,10378,-3417.8,-12743,-8381.4,-6591.1,-7284.6,6404.4,20404,26285,28481,33919,35028,23241,6475.2,-15509,-31401,-20359,266.45,12261,19025,25542,17918,-1249.7,-11018,-8585.6,-820.14,15860,32021,33950,37655,57036,77494,76782,54374,29946,16899,-5471.9,-45961,-70593,-57935,-30814,-16165,-10318,1221.4,7229.8,8031,14969,25386,34172,28403,12443,7019.8,-3059,-24148,-27243,-24388,-14963,-1440.4,-9111.5,-20195,-20799,-18599,-14887,-16545,-19795,-13079,-2730.5,-5674,-15183,-15558,-8656.6,6785.3,22025,21807,13476,10262,18354,29206,26354,17730,1887.4,-29302,-55399,-58199,-30612,-461.54,6802.3,9106.8,25196,40752,35515,10216,-11276,-9987.2,-6260.9,-4637.4,-1828.1,-1080.5,-6053.6,-11838,-11794,-7618.5,-5095.7,-5958.6,-15098,-15738,-8058.8,-2838.6,-221.33,-6082.5,-13824,-17243,-3953.3,24428,40981,32355,9130.5,-14697,-28938,-26362,-7135.8,7462.4,12022,23678,28580,24719,12312,37.895,-16559,-27499,-32764,-39399,-31157,-18575,-17314,-10522,1640.9,7371.8,4879.2,3035.5,1426.7,-3684.9,-4705.6,2271.1,4521.8,-9884.1,-26691,-21739,-4791.9,8601.9,14332,17853,24045,33499,31809,13046,-74.554,4829.9,-1505.7,-14073,-14255,-21591,-38411,-41114,-34883,-30862,-26639,-20913,-15823,-10293,-5277.9,-3670.6,-4190.2,-4158.5,-1714.2,-2449,-10184,-11009,8298.9,27409,29868,20214,16871,24958,25976,22269,10904,-572.78,-7460,-20019,-34869,-44400,-42061,-28360,-12848,-7456.2,-7687.9,-14989,-17704,-9856.9,-1852.6,5547.3,9926.8,12488,10611,9508.3,9593.7,11775,22606,29081,27638,13982,-13274,-34524,-35088,-12722,8103.1,13729,14704,19534,25163,22149,8096.5,-8647.1,-19234,-19121,-5170.9,7125.2,15959,27695,40813,43665,35491,17197,-186.44,-21074,-42780,-52797,-44601,-27840,-13595,-10586,-10266,-3261,11839,16537,10610,14165,22428,12337,-8263.8,-20327,-21124,-22755,-27148,-22121,-15728,-9499.3,-4097.8,-2347.5,-3236.6,-3957.4,-3647.6,-2320.4,13.601,4019.3,9858.3,22446,43353,56850,51225,28386,13554,18578,20288,11054,1690.7,-7277.6,-15182,-22293,-25082,-19832,-7367.4,-784.01,-592.91,-436.66,1684.7,5065.5,6882.8,6332.7,5584.9,4326.5,2404.4,806.01,-380.32,137.17,3925.9,8328.2,9116.2,6785.9,3980.7,3613.8,3409,1336,381.33,-122.05,-3911.2,-8381.3,-10876,-12887,-13450,-12003,-9720.5,-7927.3,-7091.5,-7939,-10949,-12787,-11050,-8342.1,-7246.9,-6776,-5007.1,-4428.6,-8062.4,-11292,-11030,-10078,-10403,-9138.5,-5377.6,-1787.4,-429.43,-1029.3,-2158,-2968.8,-1204.1,3950.6,7628.3,7732,7808.1,6691.8,5328.4,2715.1,-2883.3,-1793.6,7803.7,12180,8110.6,3021.7,-516.06,-1578.3,233.64,3129.9,7031.1,12005,17355,21528,25128,25808,22927,19365,17597,15964,12919,8443.6,4970.2,3405.9,4016.2,5540.2,6451.4,5473.6,3663.5,1899.9,892.97,-108.43,-2494.6,-4521.7,-5296,-6433.5,-7750.6,-8449.8,-10141,-12470,-13765,-14122,-14414,-13796,-12974,-14815,-18046,-22185,-27026,-30760,-33362,-35427,-36966,-36654,-35867,-35102,-34829,-35161,-35880,-35811,-34653,-33527,-31900,-31022,-32263,-31887,-30776,-29675,-28034,-27659,-27523,-27674,-28033,-27840,-27936,-27469,-27309,-27462,-26506,-23870,-20326,-17655,-15175,-12735,-9926.2,-8210.9,-8247.5,-8071.9,-3949.6,3279.3,8037.9,11816,16672,23306,30462,36429,41772,46600,49652,50887,51326,51483,51259,49037,45246,41706,38119,33897,30577,28368,25905,23336,21717,21333,22672,24559,27206,29011,28613,26324,23362,21616,21848,23314,23608,20987,17652,14944,13814,13748,13437,12671,11661,10954,10462,9080.6,7519.1,6530.9,4915.4,3861.9,3820.7,3004,2171.6,1755.7,1796.4,2060,2606.1,3158.9,3673.6,4560.2,4816.8,3888.5,3216.2,2216.1,703.65,-831.28,-1585.5,-2664.6,-3996.7,-5332.3,-7105,-8141.1,-8562.2,-9299.5,-10057,-10729,-10454,-9818.7,-9520.5,-10017,-11220,-13046,-14238,-14544,-14206,-14129,-13878,-13245,-12754,-12815,-13160,-12782,-11545,-10941,-11254,-12306,-13350,-14451,-15855,-17034,-17959,-18650,-19327,-19909,-19773,-18591,-17037,-16012,-15452,-14557,-13264,-12702,-13072,-14337,-15913,-16702,-16893,-16927,-17054,-17260,-17374,-16605,-15625,-15059,-14320,-13664,-12926,-12121,-11963,-12199,-12259,-11718,-11335,-10880,-10200,-9805.5,-9492.6,-8875.4,-8040.2,-7368.4,-7246.3,-6544.1,-5134,-3628,-3458.4,-3956.8,-4132.3,-3656.2,-2798.8,-1952,-1534.7,-1831.3,-2605.8,-2567.3,-1949.1,-1467.9,-1208.5,-1260.8,-950.97,-106.38,1021.8,1466.1,1451,1027.2,1399.2,2718.5,3663.3,3914.9,3675.6,4068.1,5189.7,5456.5,4027.5,1938.6,358.58,-134.2,-36.512,107.26,1108.1,3096,4197.5,4241.1,5541.8,8258.1,9078.6,7784.5,6471.7,6130.9,5982.3,5985.9,6781.7,7980.5,7989.6,7658.2,7794.9,7577.3,7696.7,8160.2,8611.7,8535.7,7838.4,7231.2,7079.5,7206.3,7078.9,6430,5717.4,5409.3,5489,5866.4,5936.5,5828.2,5974.9,6621.5,7240.5,7927.5,8693.6,9198.9,9469,9290.1,8728.5,8392.4,8136.2,7341.8,6805.6,6862.1,7158.1,7137.2,6792.1,6490,6357.6,6258.6,6664,7145.7,-1987.3,-4448.5,-3843.4,-1542.1,173.64,1298.3,1253.9,450.97,-304.99,-809.35,-1113.1,-1124.6,-870.11,-656.95,-42.185,653.78,1040.3,686.66,241.11,-856.23,-2795.4,-4724.6,-4349.4,-2254.5,-423.24,507.74,1133.3,1998.6,3197,3396.6,2589.3,2722.5,3810,4622.3,4318.6,1792.7,-3027.7,-4652.1,-5070.1,-3175.7,-209.95,740.75,1972.9,3417,3335.1,3668.2,3515.1,2002.8,-887.31,-2250.6,-2810.8,-3292,-1904.9,-202.92,994.08,1658.5,1865.7,1835,2110.9,1722.9,-183.88,-2540.9,-3191.9,-2276.6,-1556.6,18.077,1679.8,1345,606.1,650.39,1176.1,1663.6,1332.1,759.86,738.99,1224.4,984.87,275.93,-863.19,-1889,-1435.2,-825.27,-843.77,233.04,1795,2260.4,2035.1,1942,2313.3,2329,1917,1357.5,1059.9,1183.1,869.04,545.84,332.91,843.52,1223.3,1494.5,1586,1105.1,-162.42,-2226.5,-3047.6,-2533.2,-3200.6,-4778.2,-6545.2,-7668.3,-7130.2,-5247.2,-3913.5,-2178.9,-311.12,1712,2374.5,1574.2,1326.5,1374.8,801.38,406.32,789.45,932.53,1116.2,1172.1,514.77,-125.59,-197.24,210.86,-1259.9,-5667.8,-9252.5,-7765.7,-5340.7,-3209.2,-1825.5,-1190.7,-2283.4,-5317.1,-7668,-7851.1,-7755,-7983.4,-6036.3,-3655.1,-3871.9,-4419.8,-4405.1,-3168.9,-716.28,772.41,207.52,-1229.8,-4362,-7112.1,-5875.1,-4473.3,-3968.1,-3870.4,-4258.4,-4941.9,-5020.2,-4917.7,-4922.4,-4910.5,-4591.9,-3963.7,-3190.7,-2607.3,-2646.6,-2708.5,-3325.5,-4588.8,-5968.3,-6225.3,-5897.4,-6576.6,-8292.4,-9174.7,-8577.8,-7362.1,-4763.2,-1902.7,-825.53,-407.66,986.02,2227.2,1697.7,279.57,-1397.1,-2446.9,-2025.2,-1722.8,-2494,-3567.4,-3772.2,-3527.3,-3662.6,-3550,-3159.4,-2512.2,-2177.8,-2406.8,-2578.4,-2569.8,-2595.6,-2249,-1981.9,-2022,-2112.3,-1627.9,-983.73,-1197.6,-1933.2,-2171.7,-2107.5,-1991.8,-1580.7,-1662.7,-1952.4,-1607.1,-626.67,90.279,71.242,-500.6,-1277.3,-1397.5,-685.79,-182.8,739.2,1855.3,1539.7,560.76,404.45,483.43,458.67,420.56,805.96,1555.4,1918.7,2124.1,2135.9,1785.3,940.09,-841.85,-2245.5,-2056.4,-746.5,532.86,1703.1,2589.4,3888.3,5180.9,5164.4,2521.4,851.74,1822.8,2545.7,2678.6,2471.3,2622.2,2412,2069.5,1717,1464.1,1538.2,1672.4,1779.6,1712,1566,1817.9,2619.9,3133.6,3111.2,3094.8,3110.2,2964.4,2964.4,3180.1,2739.8,1311.3,708.77,806.22,1229.7,1855,2109.1,1544.4,-50.592,-1170.1,-778.62,60.437,762.89,1715.3,3107.4,4814.2,5970.8,6526.9,6523.6,5132.7,3568.6,1968.4,-101.14,-1672.1,-1351.2,-73.23,1478.1,2862.3,3885.9,3784.1,2977.5,2609.8,2733.4,2026.9,569.94,-853.92,-1690.5,-1495,-1455.4,-1402.7,-1220.3,-941.41,-316.84,285.93,629.54,779.78,905.43,904.19,620.27,-264.92,-1771.3,-3168.9,-4514,-5415.4,-5529.2,-5376.8,-5389.4,-5501.6,-5343.6,-4311.9,-2456.7,-1353,-1074.5,-1265.3,-1745.3,-2274.7,-2932.5,-4447.1,-6718.1,-8361.7,-9219.2,-9422.3,-9081.9,-8204.6,-8044.6,-8490.7,-8994.9,-9642.5,-10358,-9669.2,-7652,-5191.7,-2082.4,-1144.4,-3809.3,-6780.5,-9051.6,-10974,-12056,-12854,-13098,-11787,-8701.5,-5582.5,-4274.5,-4413.4,-4531.6,-4089.7,-3726.7,-4161.9,-5119.2,-6152.3,-7631.9,-8595.7,-8669,-8389.9,-8432.3,-7861.1,-7056.2,-6466.5,-5349.2,-4718.9,-6250.3,-9656.3,-13742,-15056,-11855,-7028.9,-3997.5,-1720.6,-2880.2,-6217.2,-7896.5,-7054.4,-5020.3,-3405.3,-2145.6,-670.96,603.09,614.99,-1241,-3160.2,-3818.1,-4157.1,-5161.9,-6920.8,-7405.6,-5849.4,-3417.9,1649,7766.1,9995.3,8578.5,4842.4,-475,-2739.7,-2110.2,-1141.4,1862.4,5310.7,6187.7,8039.8,13142,10977,933.62,-5470.4,-5324.6,-2157.3,315.51,1728,3612.5,3102.8,1432,3483.5,7807.3,8997.6,6127.3,3734,3220.2,2834.4,11008,20572,18184,8818.1,4030.4,3647.2,3404.8,5462.7,9577.1,11019,6549,2249.2,860.25,842.2,-5363.4,-16393,-19004,-16498,-17314,-20242,-20801,-23666,-25439,-27472,-25740,-14546,-2461.6,-6235.7,-12773,-6252.7,1893.8,12647,27098,31629,26174,25015,28178,26742,23421,21039,16913,14663,17356,19777,20122,26750,35967,37115,32967,29468,28464,22772,18395,15601,18098,35784,54282,43203,20277,13114,5929.1,-4080.7,-4102.5,1767.5,17845,39668,38279,10528,-7553.7,-5549.7,-820.47,-239.64,-5852.3,-12767,-17406,-16844,-7707.8,5216,5457,-8951.1,-25680,-36394,-37506,-35793,-32284,-18369,-5609.9,-5227.2,-17132,-33091,-42061,-45096,-45582,-43285,-41935,-48093,-59661,-68566,-73298,-70374,-57219,-40207,-17785,-7304.9,-14900,-21146,-18868,-13578,-9790.5,-10988,-15187,-11856,-4917.5,-953.51,-1418.9,-8076.6,-11220,-7216.2,-3733.2,-4931,-10111,-12148,-10871,-13107,-14511,-13586,-14373,-9081,1446.9,5794.1,9398.3,18916,20779,9587.7,1289.4,145.49,2204.7,4534.2,7525,10552,12106,12042,9262.9,3173.9,-999.85,-1581.5,-3544.3,-7427.1,-9545,-2724,14620,26766,26582,12161,-686.4,-2035.3,-176.38,2268.2,4576.7,4240.3,4894.1,6766.1,9438,10807,9667.1,7195.7,4275.7,893.88,-2557.5,-3123.8,-21.692,1289.7,2480.6,10466,17613,15146,12159,13626,17470,17124,13226,11381,11685,12017,10004,6689.5,2779.4,1366.9,318.54,479.82,8383.9,17302,15125,10457,9452.4,11060,13600,14356,11438,8484.4,5869,2599.2,-517.59,-2335.7,-5933.5,-6191.1,-1562.9,5742.3,11779,11407,9358.4,5756.3,354.12,-3678.3,-5099.2,-4328.1,1595.1,7322.4,4197,-316.8,-2321.8,-1590.8,-216.93,-639.4,-934.18,738.27,4.6135,-3425.7,-4696,-4180.8,-290.67,4905.1,7524.1,7433.2,2787.9,-3405.2,-7930.6,-9553.7,-5572.6,-484.39,719.11,285.07,708.64,1624.9,4184.6,3655.3,-4327.7,-12599,-14265,-15207,-13967,-6142.1,-3074.5,-7465.7,-5914.4,-245.44,4617.1,7280.4,1265.3,-6972.8,-5723.8,-2181.6,-1299.1,-3193.2,-5313.6,-8650.8,-14074,-18691,-19285,-10396,-1615.3,42.231,-1769.9,-5154.1,-9739.5,-13925,-10868,-10518,-15800,-21880,-17400,-3717.5,5799.2,506.43,-5273.3,-5951.6,-4182.5,-3195.3,-714.25,511.67,-2147.9,-7016.3,-9625.1,-8401,-6164.6,-6763.6,-9425.2,-11438,-12475,-12661,-11004,-7627.9,-4270.2,-2311.3,465.54,-330.86,-7535.6,-11071,-9365.8,-6609.8,-4418.6,-2924.7,-2156.1,-3356.5,-5392.6,-5396.6,-5470.8,-6423.4,-6431.1,-4463.5,-2925.6,-2822.9,-2370.9,-2357.5,-2839,-2496,-1818.8,-1496.3,-1037.2,369.39,3126.9,5500.4,6556.2,6072.5,4772.2,2344.3,-2104.7,-4642.9,-10314,-17336,-10147,-1572.9,-1024.3,-638.33,1768,3080.9,1765,-704.55,-3239.5,-4563.4,-5267.8,-5904.2,-3321.9,3144.7,4546.2,2607.3,-167.48,-4386.2,-5636,-3201.7,-1051.7,3406.5,11042,15317,15178,12684,5555.9,1644.4,1861.1,2733.7,3665.1,3886.1,3048.9,2384.6,1464,-886.56,-2269.3,-3102.3,-2809.7,-363.5,3204.8,4337.2,4242,4542.7,7295.7,8210.6,7113.4,5621.1,-528.22,-3845.4,657.32,4912.3,5960.1,4875.7,3192.2,3239,4133,3315.3,3186.4,3932.3,3699.4,2206.8,-825.24,-3508.9,-2150.7,444.33,1321,389.36,-985.52,-740.09,1586.9,3485.4,2446.7,1503.2,3122.4,3667.7,488.79,-7426.9,-8011.4,-219.42,3781.7,2966.8,2388.6,1760.4,663.21,630.3,1707.8,938.17,-1132.6,-3882.9,-5351.9,-1757,3696.7,4293.7,1315.1,-3387.2,-4410.2,-178.79,5770.8,8930.7,4292.1,209.9,2739.7,5632.9,5075.7,1011.1,-2594.3,-2671.7,-1075.3,213.18,-128.15,-1013.9,-2342.2,-2967.9,-1718.6,-1128.9,-1522.9,-2383.1,-3610.3,-5046.1,-4604.7,-2922.1,-2152.1,-2662.1,-3307.3,-3161.8,-1563.2,-227.5,-452.62,-2166.5,-4144.2,-4802.9,-4348.8,-4370.4,-4989.4,-4795.8,-4064.9,-3711.1,-4155.6,-5046.1,-5942.7,-6960.6,-7529.3,-7923,-5528.7,-700.06,2904.5,1023.3,-6661.1,-10096,-8351.7,-6656.6,-7225.2,-8423.2,-8898.2,-7133.4,-3932.7,-2688.1,-3565.7,-4305.1,-4375.8,-3046.8,-1751.1,-982.43,-889.52,-939.61,-721.14,-856.16,-1462.1,-3473.9,-10962,-15158,-12826,-10658,-7685.4,-5933.5,-5349.8,-5038.4,-4870,-4688.7,-4629,-4176.7,-3935.8,-3366.5,-2272,-2305.3,-3664,-4812.1,-5372.6,-6266.5,-7732.9,-9308.5,-7904.7,-2009.7,4216.8,6165.5,398.16,-5289.9,-7243.1,-7098.9,-6274.7,-6284.9,-6046.3,-1487.4,3077.4,2710,1266.2,794.45,569.46,154.79,-1499.9,-3256.8,-3602.1,-3703.5,-3676.6,-2431.4,755.62,5108.5,6458.3,692.1,-8160.8,-6979.7,-1750,879.57,1343.4,1909.2,3182.5,5230.2,7456.5,6980.8,5751.4,5772.1,5727.3,5214,3887.4,1265,-1390.6,-2730,-3734.4,-3430.6,-549.74,2950.8,5577,6296.7,6103.6,5733.4,4861.4,3368.5,1034.3,-969.1,-608.47,1498.8,5340.3,9765.4,12674,10926,4078.5,-220.37,-5555,-8739.3,-5273.1,-3912.7,-5184.2,-5669.3,-1717,4813,9722,9460,6145.8,3041.7,2854.6,4054.9,4537.1,3609.4,-2091.7,-5173.3,-5875.1,-5853,-3162.6,-1688,-1607.9,-1879,-1030.8,217.46,924.94,637.21,724.21,769.62,610.53,-698.79,-1880.8,-2116.3,-3072.1,-4172.6,-3447.6,-2157.1,-1159.4,1390.3,3042.7,896.81,-1814.8,-3638,-5525,-5876.3,-4824.9,-2455.4,1217.3,2354.2,2107.6,1362.2,-221.5,-2517.8,-6089.3,-7726.1,-8951.7,-10624,-10660,-8299.2,-3514.4,1382,8452.6,16718,13450,7201,5391.4,1426.2,-6339.3,-6126.8,-3252.6,-1339.4,-373.26,-1399.9,-3290.2,-3246.3,-478.34,1242.3,138.41,-447.45,-616.9,-2412.6,-6384.2,-4675.3,3641.5,5983.3,-784.05,-9564.6,-10066,-6291.3,-4698.1,-4215.5,-3375.9,-2839,-3318.7,-4190,-6072.1,-7773.6,-8207.2,-6364.2,-1325.3,4284.9,4162.6,1575,-314.19,-1893.1,-277.9,5734.5,4726.2,-3557.5,-5908.6,-4517.4,-4836.8,-6066.3,-4790.2,-2479.5,-1861.4,-2191.2,-2468.6,-4763.8,-4333.7,-745.36,295.01,164.11,-1126.7,-1835.6,-1253.8,-1266.6,-2605.9,-4064.1,-4895.9,-5148.3,-4992.4,-4907.2,-5171.8,-5297.8,-4826.6,-3767.8,-3253.4,-3156,-3164.6,-2823.3,-1958.6,-1100.6,-1973.4,-4254.4,-6435,-6406.6,-4867.1,-3666.1,-3893.8,-4955.2,-5612.4,-4938,-4072.6,-3611,-2475.1,-895.98,219.54,1642.3,1578.8,-377.72,-2525.9,-3991.4,-4139.3,-3493.9,-2259.5,-1338.7,-826.27,259.9,1265.5,2360,4152.5,4353.5,-1607.4,-9005.5,-6998,-4889.7,-3717.5,-1121.3,-24.647,-939.5,-1609.9,-2590.3,-2183,1717.1,7125.1,10921,8145.6,-227.58,-4874.2,-5651.9,-4520.1,-1432.2,2992.2,4204.6,1380.2,-1046.1,-808.17,902.36,1263.2,558.92,827.67,1057.7,377.42,-954.03,-3010.8,-2768.3,-861.89,-224.95,-927.41,-23.293,2811.7,4751.2,3331.8,1781.7,105.95,-664.52,562.74,2073.7,2167.7,1220.4,-3575.7,-6671.6,-6107.5,-6032.4,-2143.9,1447.2,1348.7,888.31,1611.4,2279.3,2160.6,1216.6,-192.75,-360.93,-472.34,-541.09,642.67,1334.8,1306.9,2786.1,4309.3,2583.7,-685.56,-3091.7,-4885.4,-4976.1,-2291.9,1897.3,4922,2709.6,-5431.3,-8347.6,-3906.8,1915.4,6669.1,7251.4,3502.5,234.21,-1016.2,-1333,-1980.8,-1865.4,-716.07,-412.57,-1165.9,-2147.2,-2957.6,-2070.7,-139.33,1513.1,1100.4,143.26,-747.92,-1711.9,-3116.4,-4873.2,-5621.7,-4710,-1301.4,4868.3,8275.2,6151.3,3561.1,2821.8,61.742,-7454.4,-9814.5,-7465.9,-6407.8,-4489.2,-2520.2,-1539.8,-566.38,2246.8,3187.4,1165.5,-886.15,-2735.2,-5080.7,-6770.4,-5058.9,-936.32,2029.6,2977.7,2431.8,1754.7,1436.5,850.87,-91.546,-1349.9,-2653.1,-4128.6,-5501.8,-3913.4,1322.1,7518.9,11034,7259.9,285.51,-7724.8,-12951,-11492,-6280.1,-4766,-5584.3,-6435.7,-6770.3,-6001.6,-5052.9,-4612.3,-4514.5,-3807.4,-4088.5,-5032.9,-4794.3,-4149.9,-3751.7,-3490.2,-2637.4,-808.97,-245.01,-203.86,-156.52,-1660.3,-2880.7,-2404.1,-1459.7,-1543.9,-3511.1,-5923.8,2761.5,1765.5,438.46,-371.42,-202.31,1104.4,2093.3,1724,859.15,420.35,367.11,425.41,383.52,216.55,457.66,1162.1,1940.8,2016.8,1026.3,-33.978,-81.385,295.24,705.28,1101.4,855.23,235.78,147.95,566.33,663.82,436.78,946.78,1656.7,2377,2642.9,2502.3,1762.6,1020.3,392.67,188.68,466.51,782.1,652.91,358.64,136.92,33.236,78.819,426.24,723.35,817.88,1041.8,1159,847.72,174.98,-361.03,-280.24,469.07,920,239.14,-546.38,-561.33,-656.18,-312.82,0.98018,-194.49,-382.33,-269.66,-528.47,-622.32,-618.14,-963.28,-1194.4,-1129.9,-822.49,-852.59,-1127.5,-1183.5,-1287.6,-1415.6,-1319.2,-1679.7,-2059.7,-1892,-1955.5,-2146.7,-2311.7,-2427.4,-2523.8,-2779.9,-3012.6,-3129.4,-3660.3,-4399.5,-4401.9,-3984.1,-3598,-3202.9,-2753.2,-2558.7,-2591.4,-2877.1,-3085.9,-3313.7,-3480.9,-3670.3,-3570.2,-3966.9,-4630.8,-4965.7,-5079.7,-4880.6,-4229.5,-3917.9,-3980.5,-3981.8,-4319.7,-4742.3,-5151.7,-5188,-4332.6,-3558.7,-3063.8,-3188.8,-4039.1,-4772.5,-5169.9,-4950.3,-4483.5,-4507.8,-4878.1,-4876.9,-4774.2,-4914.6,-5144,-5550.6,-5484.4,-4640.8,-3648.5,-3450.1,-3933.1,-4645.8,-5048.6,-4842.5,-4484.3,-4355.6,-4396.2,-4697.4,-4671.4,-4490.6,-4660.3,-4989.1,-5137.9,-4828.2,-3573,-2489.5,-2100.2,-2341.5,-2943.4,-3610,-3353.8,-2807.6,-2652.6,-2556.7,-2462.4,-2600.5,-2773.3,-3224.6,-3349.3,-3087.4,-1783.7,-331.52,469.28,200.25,-1093.8,-1968.4,-1812.2,-895.51,-235.8,-407.01,-620,-565.55,-297.18,-758.4,-1837.4,-2008.9,-1291.1,527.11,2742.7,3484.1,2394.2,717.04,-48.839,329.66,939.82,775.48,475.65,379.22,384.07,436.8,80.493,-529.44,-636.83,240.62,1884.4,3103.9,2857,1409.1,-65.184,-147.82,1171.4,1990,1973.8,1756.8,1933.2,2133,1845.6,1101.8,420.5,794.34,2496.3,4296,5030.4,4178.8,2349.8,1405.7,1598.5,2260.8,2369.1,1854,1256,1198.9,1621.6,1609.5,903.59,592.29,1558.1,3784.4,5468,5337.8,4211.6,2655.1,1816.8,2125.6,2942.1,3206.5,2783.9,2440.3,2401.9,2552.6,1819.3,893.63,400.14,1239,3028.9,4046.4,3350.8,1744.6,565.83,474.54,1285.2,2161.1,2119.8,688.56,-1062.7,-2291.6,-3094,-3409.6,-2959.8,-2220.6,-347.76,1791.4,2925.4,2798.7,2576.6,1595.8,1221.2,1799.2,1599.7,895.12,699.76,1011,613.32,-720.68,-2323,-2843.2,-2119.8,-164.82,1183.5,1017.6,-86.06,-1325.5,-2019.2,-2009.8,-1810.2,-1774.3,-2047,-2184.5,-2405.8,-2970.2,-3855.2,-4695.7,-4826.5,-3326.8,-1568.1,-867.8,-1374.2,-2677.8,-3730.1,-3647.6,-2675.2,-2230.9,-2643.4,-3423.9,-3705.1,-3800.5,-4625.9,-5699.6,-6476.5,-6115.2,-4898.3,-3996,-3857.3,-4927.1,-5795.6,-6038.4,-5581,-5072.9,-5375.9,-5755.2,-6109.7,-6343.9,-6429.3,-7056,-7646.2,-7900.9,-7357.1,-6426.4,-6105.7,-6525.7,-7102.3,-7273.3,-6906.8,-6344.3,-6024.3,-5858.1,-5997.4,-6354.8,-6992.9,-7408.4,-7740.9,-7896.3,-7706.2,-7234.8,-6985.4,-7090.9,-7322.8,-6992.4,-6476.3,-5622.9,-5186.6,-5426.8,-5830.4,-5762.6,-5724.4,-6123.5,-6621.5,-6976.1,-6483.6,-6073.9,-6258.2,-6929.7,-7485.2,-7440.6,-6568.1,-5274.5,-4093.9,-3395.7,-3246,-3034.7,-2733.8,-2678.1,-2991,-3557.8,-3620.4,-3099.6,-2703.3,-3030.3,-4066.1,-4465.2,-3502.8,-1840.4,-312.9,54.271,-233.56,-833.08,-994.79,-692.95,-395.97,-99.539,288.54,111.74,-1008.5,-2595.3,-3981.4,-4252.5,-3142.4,-1110.7,1165.8,3174.6,4048.6,4585.4,5184.1,4918,4356.4,3678,3136.7,3557,4507.3,4689.1,3174.6,847.81,-787.47,-128.83,2622.3,5510.3,6343.9,5917.2,5408.4,5300,5811.1,5809.6,5022.2,3929.1,4069.4,4812.8,4502.5,1899.6,-1026,-1285.3,1822.4,6555,9682.6,9807.7,9241.3,9020.9,9149,9457.7,8841.1,7842.8,8288.4,9883.2,10903,9308.6,4846.5,1070,1200.9,5250,10368,11833,9953.8,8274,8629.6,9738.6,8965.7,7141.8,7907.4,10979,13151,12259,5582.8,-4098,-6975.6,-2368.5,3547,7627.3,8151.9,6052.8,4313.2,4863.2,6543.5,7149.6,5919.6,5284.5,6887.9,8718.5,7385.4,2743.5,-1254.6,-990.37,3985.8,10143,10391,6689.4,3181.8,966.31,-66.068,2356.7,7147.6,15341,26665,28891,11687,-13196,-24932,-26809,-25979,-17680,-7710.6,-2866.5,-4781.5,-9580.5,-11655,-7942.5,-7005.6,-7999.8,-4332,2224,5332.2,-3358.3,-20470,-33094,-34932,-25003,-10102,1197.1,3539.1,-501.19,-6923.1,-11199,-11310,-8874.4,-12494,-21536,-20611,-16693,-15681,-12277,-5884.5,3759.4,12774,4057.4,-26832,-51663,-40735,-30194,-40243,-44764,-43251,-38674,-31465,-26018,-16393,-3574.1,3230.8,-9358.4,-28062,-43312,-46006,-38570,-31199,-32442,-34262,-26214,-15435,-6894.6,-7660.7,-11106,-6676.2,-4568.8,794.19,7812.7,3654.9,-8079.1,-20178,-25079,-15714,1278.8,20098,21962,21312,26802,30570,44193,57753,58004,64282,82843,93630,91824,83960,65405,25816,-22042,-46653,-65718,-86890,-83084,-68592,-68838,-67055,-59713,-49398,-38781,-36947,-44487,-64051,-86291,-79388,-54275,-25263,-1281.6,5858.9,4380.2,6303.9,2378.7,-13774,-30051,-28499,-17277,5580.7,29837,40668,44600,46022,50186,56344,66188,77382,91656,1.1468e+05,1.3243e+05,1.3073e+05,1.2274e+05,1.1377e+05,98593,82958,88975,1.0427e+05,1.1182e+05,1.0127e+05,73684,61742,58942,48220,39168,32530,30142,20715,8223.2,3337.1,7826,10276,4424.4,-8485.1,-17454,-16785,-5825.1,-3965.9,-15994,-12675,1915.4,2717.2,-13142,-37029,-58003,-73940,-78683,-73243,-77666,-82937,-71531,-49350,-32391,-28447,-21249,-11065,-11653,-23630,-36987,-43804,-41124,-40766,-52916,-63657,-77107,-81881,-70851,-62738,-50809,-39438,-28967,-21561,-10475,2092.7,1377.5,-2569.8,-1322.9,-6313.1,-17896,-17664,-13224,-18413,-25349,-32371,-37234,-35087,-28071,-23393,-28972,-38527,-27335,-13069,-2135.4,5902.5,7735.7,3349.9,-5884.3,-7120.9,-2166.9,1187.1,-5918.8,-15837,-20719,-21717,-13053,5690.1,25214,37202,37572,31242,25305,15904,10837,8878.3,9094.1,10238,7471.2,2804.9,4818.1,13836,28636,39068,28459,8451.7,9338.5,24912,36229,39729,44693,51260,53627,47766,42529,45155,45747,46211,47969,43365,32453,15590,4179.5,-6221.4,-14568,-19189,-17320,-3061.2,6536.5,-1459.2,-9007.9,3534.7,20908,18279,2196,-9895.7,-8697.5,334.98,-570.59,-22816,-41009,-50307,-44356,-29207,-19517,-12701,-6896.8,-5413,-9586.4,-13431,-10920,-10494,-12907,-10704,-13063,-9313.2,-9610.9,-22414,-28198,-23572,-9493.7,-3746.4,-13141,-19518,-14915,-16020,-18522,-14047,-9909.1,-1912.5,6587.1,6760.1,-1211.6,-9794.7,-5213.8,3110.1,214.75,-2793,12387,33512,42033,27141,-1151.3,-18660,-14416,-8114.2,-8194.9,-11442,-21862,-24749,-20943,-15053,-10279,-10320,-14237,-16728,-10531,359.64,4373,1589.3,-1540.7,-3294.4,-2870.9,-4026.4,-11751,-16730,-4099.9,13592,20568,21540,25544,28560,23926,14724,9611.4,4073.8,3647.6,-972.18,-13957,-13713,-4019.2,4480.5,9804.1,16569,9578.2,-14039,-23534,-12732,-7678.6,-10617,-8423.6,-4297.9,-921.85,2156.2,1096.2,-704.14,-1688.4,-2979.1,-4510.7,3658,9621.7,10763,24164,43400,41111,24995,20106,21377,-1543.2,-26954,-26880,-10416,-12314,-26584,-21050,-5992.7,3449.2,6485.3,2047.1,-4810.1,-8185.6,-10069,-7860.6,-2645.3,735.22,1652.5,2090.4,2578.4,3076.3,3703.1,4836.5,6027.7,5977.3,7353.4,10892,11910,10431,9962.4,9047.8,9066.2,15158,23633,25611,20873,16899,19236,21352,19641,16890,16124,15162,4110,-9741,-6403.1,9396.8,11337,253.29,-9463.9,-10729,-3144.8,1984.9,455.69,-4033.2,-6550.9,-9457.3,-10353,-7584.5,-4924.5,-3012,-1027.4,259.51,3057.8,6265.9,4818.9,3774.1,5622,10108,14195,10201,-1607.8,-16377,-33908,-39638,-31924,-20079,-17619,-19479,-20855,-25802,-29753,-28907,-24602,-21071,-20651,-23899,-24523,-19301,-11719,-9639.7,-10466,-7086.1,-3223.4,-5929.6,-15406,-32815,-40492,-35797,-29905,-33806,-42975,-45908,-41053,-38252,-31620,-24570,-21255,-20613,-22324,-22802,-19795,-9594.3,221.66,900.58,10351,19024,19273,26121,43046,58412,63845,62038,60942,61782,60234,51061,37182,22696,15711,11836,-875.94,-8436.7,-4899.3,-6671.8,-11207,-15081,-18066,-19672,-19618,-19013,-18816,-18553,-17316,-15341,-14335,-16130,-16983,-12521,-7107,-4767.5,-3052.1,2848.5,5354.3,1318.8,-2740.9,-15275,-29416,-35730,-36464,-27321,-22144,-13927,-6604.4,-7071.5,-8138.2,-6748.2,-4454.9,-4076,-5046.8,-5769.6,-6001.9,-4813.1,-2338.6,-1213.8,-410.73,396.99,1395.3,2687.1,1907.9,74.94,-1755.7,-1750.9,1316.3,4179.1,4316.8,3620.1,2854.2,3844.3,8280.6,13260,15424,16536,18085,22938,29110,31291,29916,28852,28385,28051,29443,29318,25201,20895,19640,20661,20698,19567,17573,16877,18366,17845,14604,10860,8538.5,8822.8,10296,9800,7811.4,5585.7,4887.8,8432.5,13865,17836,20535,21064,20141,19038,17352,14468,8870.9,29486,65404,73398,74554,69203,70778,78858,81838,72418,59732,43218,26126,10487,12130,15079,15898,10315,5801.5,-2444.7,-16083,-31705,-44403,-51558,-58351,-63200,-61255,-55616,-55219,-60179,-65047,-68284,-71205,-74775,-77439,-78761,-86615,-86316,-73839,-66520,-62870,-61770,-61122,-59205,-59388,-61996,-57905,-51993,-49932,-49523,-49310,-49417,-48557,-46757,-44602,-42432,-38495,-36776,-41661,-34895,-23985,-17021,-12872,-9812.8,-6719,-4685.8,-3798,-3994.9,-3119.3,-949.88,1859.1,6126.7,9531,10464,9238.7,8443,10590,13154,13536,13965,14588,15757,16269,14979,12162,9430.2,8005.4,9738.4,13045,15416,16777,18440,20926,23375,24910,25436,25810,26427,27274,27068,25433,23095,20701,19200,18591,18963,20507,21999,22977,24037,25286,26803,28151,29080,29657,29682,29094,27947,26509,25015,23355,21999,20759,17975,15404,14329,14207,16987,18166,18442,18213,18071,17597,16056,14290,12449,9241.7,4874.7,4435.2,5593.3,5649.9,4061.2,3590,3290.2,681.81,-1151.3,-957.57,-902.08,-599.99,-272.99,-238.85,132.19,437.52,156.62,-1253,-6415.6,-8582.7,-7885.9,-7011.1,-5881.2,-4758.1,-4399.1,-4563.1,-4542.2,-4974.5,-4917.4,-5477.3,-7681.7,-10796,-14058,-15746,-15651,-15224,-13612,-11103,-9075.8,-6784.2,-4582.7,-4007.4,-5462.6,-7167.1,-7838,-7703.9,-7808,-9076.4,-11044,-12753,-13717,-13432,-12020,-11813,-11697,-10552,-8716.7,-7305.2,-7035.9,-7610,-8172.2,-8207,-7820.5,-7895,-9173,-11119,-11905,-10872,-9581.8,-7980.4,-6030.3,-5305.8,-4789.4,-3645.7,-1952.8,-1634.4,-2763.4,-3392.1,-2901.2,-2054,-891.84,-656.06,-1592.6,-3083.3,-3235.3,-1675.6,528.03,1228.8,-3029.5,-3982.8,-3357,-1618.6,275.41,1045.5,2207.5,3710.2,5595,6835.5,5950.6,4667.4,4585.5,5846.3,7659,6925.8,-2735.4,-5601.4,-19147,-33475,-33473,-27280,-27837,-27350,-29344,-22688,-23479,-17410,-11873,-11909,-21915,-19601,-11576,-14964,-27657,-29759,-27178,-25095,-18970,-12630,-7725.4,-2389.9,1736.6,4036.2,4565.7,4489.7,5522.8,7482.9,8575.4,9274.9,10969,13076,15110,15707,6839.8,-9686.3,-6987.3,1469.1,5482.5,-737.45,-709.88,-323.9,-672.8,-1482.6,-2215.8,-2652.4,-2401,-1897.9,-1509.5,-1035,-823.48,-799.53,-460.38,-464.67,-429.57,-243.43,-37.111,-32.662,-174.96,-587.82,-1090,-1339.2,-1069.6,-455.15,146.38,255.07,234.5,284.32,157.23,211.58,66.871,21.294,833.83,1774.8,2164.3,2045.3,1283.7,321.47,-461.4,-803.1,-490.82,379.75,899.97,365.55,-177.1,-17.073,91.124,345.19,765.07,1074.3,1372.2,1707.1,1342.4,463.95,-575.57,-971.59,-784.32,-492.8,-126.85,-57.197,-324.7,-260.46,288.09,246.79,346.34,909.77,1129.3,809.82,651.9,165.32,-820.97,-1597.5,-1680.7,-1383.2,-888.2,-692.65,-491.38,-722.23,-1133.9,-1255.8,-912,-178.88,355.02,136.2,461.19,1089.6,1180.2,129.57,-836.45,-869.82,-228.65,297.17,258.2,-94.786,-271.39,-310.22,-657.1,-1102.7,-1081.9,-657.35,-266.38,-427.94,-969.31,-1668.1,-2520.7,-2612.3,-2106.3,-1179.2,-512.16,-353.64,-844.78,-1658.5,-2513.9,-2691.8,-2480.7,-2158.1,-2019.6,-1805.9,-1780,-1778.2,-1941.5,-2155.5,-2462.2,-2543.8,-2186.4,-2122.2,-2331,-2352,-2793.3,-3455.4,-3904.4,-4240.1,-4202.9,-3658.9,-3079.8,-2809.9,-2918.7,-3230.9,-3274.1,-3259.7,-2957.2,-2809.2,-2941.2,-3242,-3371.7,-3543.9,-3696.7,-3480.2,-3275.6,-3230.3,-3325,-3797.4,-4590.5,-4708.4,-4384.3,-4236.8,-4072.7,-3782.6,-3460.1,-3485.3,-3561.8,-3656.4,-3643.3,-3460.9,-3251.9,-3375.1,-3555.9,-3618.1,-3792.9,-3818.3,-3410.2,-2894.9,-2722.1,-2389.4,-2489.6,-2579,-2731,-2837,-2939.3,-2983.1,-2906.9,-2962.8,-3131.2,-3167.1,-3418,-3387.3,-2787.3,-2032.6,-1877.3,-2282.5,-2655.1,-2681.9,-2690.3,-2290.2,-1860.5,-1822.6,-1787.2,-1684.5,-1571,-1512.4,-1650.2,-2017.3,-2123.9,-2164.2,-1761.5,-1250.9,-1507.6,-1877.8,-1889.8,-2204.8,-2413.3,-1991.7,-1326.1,-1038.7,-789.8,-644.25,-551.52,-772.58,-920.74,-649.1,-113.58,224.28,421.57,231.08,-169.25,-517.66,-728.11,-883.09,-860.48,-322.86,257.76,302.76,-239.62,-658.9,-431.94,-199.07,472.94,1713.3,2607.2,2843.3,2507.9,1716.9,1207.2,1329.9,1998.8,2453.6,2681.7,2585,2497,2090,1462.5,974.05,1547,2555.3,3651.6,4202.1,3855.7,2919.1,1557.4,745.64,957.49,1496.1,2184.4,2532.5,2612.3,1907.7,969.42,201.71,51.496,843.05,1990.1,3067.9,3166,2394.9,1341.5,364.91,232.81,773.73,1480.5,2148.5,2709.9,3181.8,2976.8,1642.7,307.09,176.1,1247.2,2636.5,3494.8,3593.9,2743.6,1135.7,-24.854,-98.332,679.53,1536.5,2213.2,2088.5,1356.4,573.2,-361.11,-1204.1,-816.27,643.15,2511.5,3084.2,2233.7,546.36,-851.58,-1318.5,-1104.3,-579.13,280.85,930.52,749.63,302.34,-523.2,-1579.5,-2529.8,-2249.3,-528.47,1118.8,1494.2,216.47,-1925.9,-3300.2,-3351.9,-2898.9,-2686.4,-2814,-2822.7,-3307.2,-4196.5,-4761.6,-5158.6,-5268.1,-3721,-1012.7,953.37,681.14,-1829.8,-4805.4,-6310.8,-6315,-5208.6,-4261.9,-4006.2,-3742.2,-3837.1,-4627.9,-6277.5,-7243.6,-6733.6,-5184.1,-3395.1,-2816.8,-5059.3,-7823.7,-8646.6,-8576.7,-8638.6,-8501.7,-8024.2,-8099.5,-8502.8,-8957.5,-10182,-12295,-11136,-7774.2,-7105,-6231.2,-4520.8,-5635.7,-10282,-12889,-9936.4,-6483.1,-7993.9,-9624.5,-9439.9,-10519,-12288,-14056,-13909,-11536,-9738,-10269,-12249,-17129,-21286,-22763,-26114,-31402,-35034,-35234,-35405,-34445,-28260,-20730,-18873,-20967,-19935,-19722,-23085,-25470,-26230,-19349,-6872.4,-1996.4,-2706.3,-1576.9,621.5,824.71,1573.9,3249.6,5738.6,10224,17132,19125,14384,16682,26764,36229,41244,41774,42284,46411,51492,47565,42751,37592,29491,28781,33944,36791,31047,24728,21015,20142,29711,41610,39582,30610,19625,16036,16973,19184,17418,18264,26182,22559,23747,28248,19991,16274,12754,8901.4,9510,18141,29058,27828,22430,18009,16188,18075,19332,19811,16324,8504.4,-345.52,-7267.4,-6593.1,-4325.8,-11988,-21117,-19902,-14001,-13502,-17424,-22687,-29996,-36640,-42091,-48678,-54832,-58252,-60360,-60139,-52750,-40999,-29803,-21970,-18250,-14611,-11149,-14333,-17285,-19634,-18465,-18014,-19972,-21591,-21445,-20590,-22820,-28368,-34393,-36027,-38395,-46388,-45237,-44553,-41896,-27642,-13332,-5587.5,-4883,7741.2,20390,11515,4913.6,9843.8,16597,21788,16390,4501.4,-3464.4,-6652.4,-2002.2,4244.1,8596.6,8759.1,2890.7,-2796.7,-5182.8,-2327.6,2987.3,5099.5,3199.4,-2633.8,-4507.6,-954.35,4650.1,9540.4,9634.3,5105.2,3154,3950.2,2587.8,2009.5,2878.4,2289.4,4243.5,9016.9,8137,3470.8,692.82,2240.7,5232.6,6951,6130.6,4115.8,6642.8,8999.6,9677.1,8100.1,4983.3,5155.4,5260.8,6161.6,7224.4,6525.4,3389,-566.94,-3639,-1344.4,4191.6,5454.3,3562.8,1207.2,1141.7,5112.5,10933,13109,10293,3120.4,-2212.9,2939.6,9847,7366.4,1136.9,4529.7,11473,11334,10441,10453,9057.5,6658.9,4521,1398,-1258.2,1308.9,4990.3,9684.6,13542,12356,9161.5,4501.7,-3161.4,-6996.3,-4753.1,-4217.4,-4104.5,-3298,-3708.9,-3718.7,-1910.5,-111.65,2539.8,3340.2,751.9,1027.9,2907.7,2563,-104.03,-5198.7,-11940,-12807,-8978.9,-4423.6,2817.7,10612,6119,-3067.6,-5250.6,-6465.6,-3370.6,63.214,-4472.3,-7023.5,-4766.4,1127.2,5374.7,1044.3,-3057.7,-3810.6,-5877.3,-7570,-6492.1,-4532,-4422.3,-3308.4,-4913.6,-10481,-10019,-7243.9,-4882.3,-2096.8,-1579.3,-3440.8,-4021.2,-5145.9,-5106.2,-2723.6,-1332.3,-3255.2,-1765,-606.77,-4701.6,-6038,-4576.7,-3894.4,-4947,-6987.6,-9525.3,-11595,-10070,-5191,-1514.3,-1502.4,-2857.6,-4826.2,-5769.5,-6769.1,-8106.8,-7446.9,-7052.5,-6942.8,-6956.5,-7601.6,-8942.8,-10000,-8540.7,-4996.3,-2240.9,-896.43,-355.05,-2485.6,-4511.7,-3763.4,-3088.1,-3625.3,-2480.7,1615,1885.4,-217.82,-2164.7,-3960.4,-4488.9,-3872.2,-4073.4,-724.02,2492.2,-1406.5,-1809.4,379.79,-140.17,-1978.5,-3374.1,-3119.1,-2541.3,-892.62,1405,3305.2,5360.6,4307.7,-900.35,-5352.8,-7256.5,-8206.4,-9470.6,-16658,-18393,-9301.1,-26.61,5257,9772.5,8048.8,451.34,-2077.1,-760.24,-520.25,532.85,2530.1,6150.9,8795,6869,956.94,-4823.3,-7171.6,-4940.2,-505.18,4101.3,3852,2080.1,3514.1,7892.3,13568,13558,9191.1,8723.6,8868.2,7716,6630.8,5803.4,5834.9,8272.6,10590,9552.2,7260.4,5542.3,4160.9,5321.8,6914.2,7178.3,9520.7,13422,11864,8603.1,7869.5,5987.7,3570.8,3461.1,3599.4,3082.4,3872.2,4742.1,5266,4369.2,-1434.3,-5162.7,-2895.7,1297.4,315.78,-1764.9,-3484.8,-5737.7,-8046.1,-10083,-12066,-13937,-14797,-14517,-14228,-12624,-11351,-13540,-16797,-19672,-17233,-13094,-9511.1,-5632.4,-8387.9,-11703,-9024,-6284,-5501.1,-5006.7,-4688,-5197.7,-6051,-5772.3,-4643.9,-5263.7,-4887.9,-5396.2,-14315,-17632,-12294,-9209.8,-9542.9,-10177,-9260.4,-8920.2,-9657.8,-8241.8,-1953.3,2540.3,2627.1,2853.6,-1735.9,-6516.5,-5042.1,-4086.7,-4371.9,-4952.9,-3802.8,1152.2,5832.8,5228.1,2565.7,765.71,269.15,925.05,1805.3,1939.2,2778.3,2573.8,575.69,-1924.4,-799.9,1677.2,2042.5,1939.9,2491.1,2166.8,1526.9,1134.6,-187.02,-1244.6,-1241.5,-58.005,231.76,1030.9,3186.6,2893.8,1486.4,1137.9,2729.1,4915.4,6019.4,7229.2,9358.3,9611.4,5913.2,1695.6,238.52,204.81,1720.8,5465.1,10518,13858,11694,8453.1,7765.2,7201.5,6506.6,6653.7,7593.7,7631.1,6122,4271,2121.9,2451.8,4520.5,4839.6,4387.2,4223.7,4306.5,4415.5,4667.5,5499.7,5280.3,3807.3,1046.3,-4375,-12734,-14152,-12531,-12818,-13914,-14964,-14979,-14058,-12472,-10483,-10500,-10687,-8412.5,-4610.2,-662.99,1868.7,1756,-1842,-6286,-6908.2,-1893.8,2176.1,341.63,-840.99,1044.2,3727.1,6559.1,4895.7,-1501.9,-3500,-2229.2,-1003.3,-318.99,115.28,381.49,215.93,-53.778,-347.29,-649.08,-1302.5,-1111.4,-278.04,613.27,2297.3,3379.5,3246.9,2578.7,2622.2,2450.9,2353.1,2817.8,3550.3,4547.6,3858.5,2326.6,1856.9,1845.6,1182.5,1284.9,2756,2970.7,2173.7,522.22,-1541.9,-3877.9,-6016.5,-8152.2,-9924,-11082,-11237,-11134,-13615,-17908,-22919,-26525,-26994,-25918,-25573,-24359,-19230,-10766,-3710.1,-489.62,1952.3,-924.08,-4652.2,-4798.2,-5117.7,-5127,-5067.7,-4731.9,-4320.3,-3839.8,-3414.9,-3426.4,-3780.8,-4256.7,-3433.4,-1436.1,510.36,3024.8,4203.4,-2212.5,-6815.3,-4759.8,-2860.9,-2707.1,-2609,-1830,-1317.3,-1552.3,-1408.1,-130.17,867.22,882.16,505.05,1322.6,3510.6,4507.6,3879.6,2788.3,1881,900.88,749.86,1920.5,2315.6,1837.1,1258.2,1711,1231,-360.64,-2686,-4547.1,-4016.3,-1373.4,2883.4,4264.2,3753.9,6954.6,11960,15270,11047,3870.2,1277.6,2244.8,4326.8,4956.1,3975.5,2195.4,1001.5,2258.5,4410.4,5009.6,3883.7,2634.3,2918.3,3388.4,3859.1,5148.4,7652.5,9647.8,9694.9,8967.6,6223.4,-1725.7,-4919.9,-2177.3,-732.83,1597.1,5756.7,9428.9,9412.8,7723.1,7026.7,7298.3,6630.5,5762,5475.4,6026.4,5099,3469.5,1158.1,-5186.3,-4696.1,-285.51,1506.7,1627.9,803.3,-104.41,-125.8,1002.1,2993.1,5394.9,5755.6,535.83,-1513.6,779.75,2466.8,1990.9,-90.63,-2731.1,-4663.9,-4911.5,-5647.9,-7043.5,-8293,-8639.5,-7572.5,-8134.6,-10615,-13548,-15061,-15054,-14928,-14878,-13052,-11413,-10040,-8719.9,-7439.7,-6670.1,-6851.1,-7215.2,-8016.7,-7827,-6952.2,-6466.1,-6317.4,-5945.5,-5746.3,-5583.5,-5182.6,-4399.6,-3239.3,-3447.2,-4604.1,-6761.7,-9043.7,-9468.2,-8030.2,-5866.2,-3916.6,-1885.4,-3435.4,-5826.4,-5755.6,-4511.3,-1621.2,2706.8,5743.9,7486.9,4338.4,-207.53,-273.13,2226.1,4756.3,5863.5,-2407.6,-15166,-14122,-9442.1,-5955.7,-3482.2,-1875.1,-1719.1,-2327.3,-3007.9,-2366.6,-546.66,609.99,552.48,-124.92,-812.81,-1149.1,-964.27,-1007.3,-1610.6,-2373.1,-2339.3,-1746.5,-1606.9,-1947.9,-2094.7,-2424.9,-2563.2,-841.75,1149.5,995.39,-517.63,-947.01,175.69,901.56,1087,988.81,1037.6,666.94,-594.31,-2842.9,-5548.6,-7060.6,-6660.7,-5179.3,-3427.4,-1069.4,2626.7,3582.4,2468.4,2101.1,2527.8,2585.5,4025,6999.6,9813.3,9508.5,3269.7,-455.58,-693.36,-63.208,2220.4,5303.3,6469.4,5167.7,3024.8,732.43,22.183,7.6328,-598.51,-970.02,-744.9,291.65,624.79,470.52,-343.71,-1072.1,-459.87,1461,1973,762.16,-171.32,-563.21,-731.85,-832.38,494.39,1485.2,1795.1,2893.4,3600.9,4235,5654,7306.7,7740.8,-543.17,-10754,-8057.7,-3574.5,-1995.6,-1859,-2457.5,-2885.3,-3025.7,-2812.7,-2677.1,-3185.2,-2824.5,-265.59,879.6,-864.09,-3750.2,-4939.7,-4879.9,-5398.5,-5554.5,-5242.9,-5076.2,-3115.3,3568.2,10871,9749,2404.1,-980.12,-1841.5,-3593.1,-5903,-5576.9,-3447.4,-1903.6,-1479.5,-1143.2,-575.39,-1066.1,-1096.6,-836.36,-2071.3,-1232.4,869.39,-591.55,-4000.7,-6768.1,-6140.8,-3403.8,899.89,4026.7,2138.4,46.022,-681.71,-675.39,-834.21,-1636.9,-2603.2,-2986.1,-2987.3,-2188.2,-1346.3,-1027.3,-496.49,-154.94,-173.76,-957.06,-777.05,-139.22,-1218.1,-3375.3,-2652.4,-1597.6,-1890,-2973.1,-3969.9,-4285.8,-2441.5,-595.8,-360.65,-530,-1344,-1462.9,-394.37,-503.63,-1686.2,-1805.1,-1297.5,-2009.5,-3441.3,-3628.4,-3164.8,-2793.1,-3529.8,-8083.5,-6456.3,-264.19,3516.6,812.74,-3315.3,-2480.3,-1037,-1182.5,-1913.9,-2471.8,-2438.3,-1942.6,-2439.9,-3633.2,-4375.6,-4278.7,-4174.9,-5223.5,-5563.5,-2990.6,-1096.2,-1046.7,-3165.6,-5125.6,-6715.9,-8571.6,-7814.3,-6012.7,-4632.5,-2862,125.33,1139.4,-539.67,-2501.4,-2174.1,-2236.5,-2499.4,-3030.5,-3001.5,-2803.3,-2581.5,-1883.1,-1173.7,-1189.5,-1450.2,-1525.8,-1127.2,-1286.5,-1545,-1868.9,-2288.9,-2091.2,-2245.8,-3170,-3961.7,-4061.6,-3559.5,-3213.5,-2958.5,-2663.9,-2294.1,-1065.4,711.38,2203.9,1949.2,581.4,-452.53,-1131.2,-1191.2,-974.81,-689.14,-625.76,-953.7,-741.73,-134.52,-304.67,-2163.3,-3262.1,-2385.9,-1490.8,-1424.3,-1932.5,-2316.3,-2423.5,-2320.1,-1858,-1578.1,-1892.7,-2316.4,-3596,-5258.2,-5541.8,-4418.4,-3225.9,-2557.2,-1831.4,-765.09,100.17,752.59,1194.9,834.75,-33.283,-776.59,-1363,-1477.1,-1597.7,-1518.2,-796.52,-233.14,-58.349,-313.87,-754.05,-847.65,-758.02,-1148.5,-1764.6,-1772.4,-1788.4,-1767.8,-1501.3,-1983.9,-2735.5,-2325,-1535.7,-404.93,595.86,735.58,300.48,-438.06,-953.71,-782.93,-836.42,-1165,-1239.1,-1347.4,-1002.1,-737.41,-1015.9,-1528,-1713.7,-1524.8,-1032.2,-949.43,-1251.4,-1232.6,-894.7,-758.52,-884.9,-1302,-1260.9,-862.95,-624.01,-641.56,-941.62,-1463.3,-1879.6,-1458.2,-691.9,-154.33,-83.028,-359.06,-566.86,-595.78,-620.6,-927.58,-1280.5,-1242.7,-743.43,-76.516,-205.74,-1150.3,-1944.2,-2500.7,-2047.6,-1301.5,-702.05,-230.26,-130.17,-444.5,-440.59,-573.74,-1167.1,-1685.7,-1688.9,-1609,-1361.7,-1295,-1842,-2224,-2010.8,-1776.8,-1324.6,-1109.3,-1036.9,-1313.2,-1410.1,-1255.9,-888,-889.71,-1143,-924.68,-612.54,-553.68,-834.13,-1242.4,-1467.8,-1349.3,-861.45,-121.97,394.5,940.31,971.78,442.83,-281.71,-774.2,-762.27,-52.494,333.92,521.49,316.75,-142.11,-730.32,-1190.3,-1340.4,-838.93,-348.1,-78.545,-432.94,-655.61,-1058.5,-1375.4,-1378.5,-1320.3,-923.14,-546.26,-506.22,-733.73,-1235,-1537,-1548.1,-1222.9,-913.89,-692.72,-530.71,-647.84,-954.14,-1544.3,-2030.9,-2162.8,-2035.5,-2071.2,-1657.8,-1503.7,-1449.1,-1536.4,-2254.1,-2561.1,-2519.5,-2254.1,-1834.9,-1360.5,-924.03,-1217.9,-2148.5,-2717,-2358.2,-1691.2,-1305.2,-1413.4,-1750.2,-2252.9,-2771.5,-2992.2,-3385.5,-3410.4,-2681.9,-1964.7,-1800.2,-1872,-2138.6,-2378,-2833.2,-2948.7,-2548.9,-2003.8,-2010.5,-2223.9,-2094.4,-1872.3,-2012.3,-2303.2,-2418.9,-2372.2,-1982.9,-1626.7,-1799.4,-2597,-3719.2,-3635.5,-2778.6,-2125.3,-1842.5,-1846.7,-2044,-2304.1,-2052.7,-1838.2,-2110.9,-2786.5,-2696.7,-2041.4,-1661.8,-2005.3,-2606.1,-3081.5,-2909.1,-2484.6,-2387.1,-2129.8,-1870.3,-1771.2,-1404.2,-1201.5,-1447.4,-1969.5,-2745.4,-2776.5,-2044.9,-1680.3,-2077.4,-2646.9,-2936.7,-2773.4,-2592.7,-2147.7,-1710.6,-737.84,449.12,1055.2,694.74,-480.22,-1649.2,-1676.4,-875.44,-453.77,-521.24,-1130.8,-1560.2,-929.48,-166.39,120.76,-149.17,-453.24,-682.38,-582.13,-363.54,-780.5,-1620,-2233.4,-2153.2,-1485.5,-670.91,-945.96,-1502.9,-1378.1,-443.72,433.87,296.04,-573.28,-1009,-461.24,853.23,1613.9,877.26,-454.04,-1076.5,-384.35,754.66,1011.9,434.13,-98.164,-13.29,500.77,1051.7,739.66,179.55,361.43,1106.9,2274.3,2484.9,1075.7,-726.35,-1314.6,-280.03,961.37,1696.8,1905.3,1824.6,1632.5,1814.6,1874.1,904.99,-299.87,-63.042,1351.8,2597.1,2470,1275.1,239.8,97.942,899.73,1552.9,1349.6,480.75,88.563,553.23,1248.1,671.79,-353.9,-760.44,197.2,1657.9,2405.2,1015.4,-862.61,-2190.3,-2766.1,-2454.6,-2111.8,-1898.2,-1433.7,-986.39,-49.127,197.43,-439.16,-1413.5,-1124.7,780.55,2333.3,2233.7,486.87,-1954.3,-2937.7,-3426,-5494.7,-7288.2,-7868.8,-6926.8,-4603.4,-1593.3,-1454.5,-3716.3,-4630.1,-3492.6,-1776.5,995.33,2478.9,525.4,-760.39,-2471.9,-4813.3,-5073.7,-2673.6,1985,4688.7,2949,-529.22,-2816.7,-2366.9,-963.63,995.41,3460.1,3758.4,3309.9,178.09,-4557.1,-5290.4,-4915,-5455.4,-5457.6,-6709.4,-6993.9,-4965,-4842.5,-8095.1,-13337,-17182,-18839,-17864,-14609,-12471,-15230,-19119,-22392,-23116,-17907,-9504.9,-3586.5,-5613.5,-15976,-21409,-14693,-4533,3272.6,6403,3227.4,-647.02,-2364.9,3969,10120,4002.1,-89.682,1886.8,496.76,-285.22,2733.4,3670.8,2787.2,2118.4,-2302.1,-12977,-13824,-5020.1,8902,14547,12304,6946.4,-4782.4,-3117.2,6154.1,7056,4845.9,2765.5,-1697.2,-6781.9,-10171,-12150,-10028,-8852.1,-5772.8,3065,20338,34912,27708,14732,9969.7,3804.8,-3614.6,-9415.3,-7017.1,4889.8,15795,18372,15194,10379,3274,116.72,-2202.7,1552.3,10576,18317,25002,26437,20377,13446,10713,11499,10906,8622.7,6687,6588.1,5515.2,3536.6,345.24,-5095.1,-11789,-16397,-20801,-23541,-17111,-5317.1,4927.6,4126.9,-262,2250.8,1809.1,1096,-562.05,-4579.1,-10807,-12373,-5216.2,-303.7,-535.62,2119.6,333.34,-6647.6,-7031.3,-4385.2,-4835.1,-7582.6,-8499.2,-4180,-706.64,-2379,-7973.4,-12777,-16180,-16855,-13342,-5979.6,-2607.7,-1187.6,365.02,-1932.9,-3245.6,-2213.7,-2007.1,-2635.9,-2524.1,-562.91,709.44,-4367.1,-14801,-22229,-19890,-11590,-4074.9,4451.6,4944.2,-186.99,780.48,2756,2052.8,-6076.6,-15844,-13878,-8368.3,-3256.2,-302.89,-878.51,-1924.2,-3629.9,-4786,-3791.5,-2928,-5064.8,-8723.4,-11031,-11475,-10882,-7352.3,-137.96,641.62,-1517.4,-1153.2,834.72,4665.4,8152.1,5791.3,-3788.6,-10240,-11305,-12962,-11776,-3992.6,7620,15246,14496,7295.4,1981.9,954.06,3434,5026.6,1757.8,-1488.5,-1258.5,1358,3873.6,7274.7,6126.6,2356.5,1703.5,2387.1,2000.1,535.42,-410.91,1365.1,3669.5,473.02,-6077,-5823.3,-4526.6,-3766.3,-3436.5,-5399.8,-8613.9,-10652,-11877,-11315,-4952.7,6765.9,13528,10158,4995.9,2517.4,3525.1,9150,13398,7647.9,3525.4,2850.2,2166.4,-2184.3,-8464.5,-5870.8,-1708.5,89.318,569.8,-198.85,-1542.1,-465.45,2412.4,1757.1,743.48,1025.2,297.02,-737.34,-1277.5,-403.05,4442.9,7870.5,4398.1,1761.9,-750.89,-3059.1,184.99,6159.3,5821.6,-1620.2,-6828.3,-7147.2,-7431.7,-5839.9,-1834.5,740.49,357.68,-201.98,-8.5444,-775.18,-3069.6,-6360.6,-8232.3,-9195.2,-7570.3,-3386.4,-1168.2,-586.58,-986.03,-1147.5,-945.42,-2156,-1825.2,1431.4,1077.3,-1392.7,-1005,1844.5,676.9,-3727.9,-5097.8,-4165.3,-3816.9,-3721.8,-2426.1,-2135.3,-2085.6,-1308.7,-232.69,1047.6,2588,4058.9,3545.6,167.91,-3864.9,-5790.5,-6045.2,-6445.8,-5485,-1622.1,-1084.7,-3229.2,-4228.4,-2839.4,31.323,3568.3,1607.6,-4842.6,-4334.6,-3713.5,-3843.5,-4620.2,-6205.3,-5650.9,-1521.9,3205.7,7458.7,7439.1,2881.4,3698.3,5007.2,-2207.7,-9363.8,-7719.8,-4164,-2297.7,-2523.6,-1637.1,-577.75,-766.54,-1134.7,-1275.5,-1938.3,-3006,-3330.1,-3536.2,-3298.3,-2462,-2400.5,-2154.7,-2596,-2961.8,-2230.5,-799.31,85.38,-1772.8,-3926.5,-3740.6,-2517.9,-1326.2,-673.01,-1021.4,-2846.7,-3690.6,-2290.8,-758.66,1055.5,1786.6,398.08,-3311,-7772.8,-7919.8,-3580.2,-628.16,-1286.4,-725.87,185.66,-183.81,-973.75,375.26,3006,-1213.5,-6917.4,-3501.9,1230,3830,479.59,-5285.8,-7288.4,-7522.7,-4737.2,-434.36,1152.3,1634.1,978.66,-1376.3,-2815.8,-2989.4,-2808.9,-434.64,2776.4,3229.7,2177.7,4180,5317.2,3309.2,1457,775.1,791.61,686.58,676.21,1225.7,1808.3,2081.6,2267.7,2279,1438.3,239.85,-4746,-11968,-10659,-4646.2,-433.52,-213.2,-964.93,787.28,3110.1,5307.5,5180.3,4617.5,3583.7,665.16,-4518.3,-7765.4,-4260.9,-1479.8,-1785.3,-2200.8,-2676,-3338.1,-3421.3,-3188.5,-3627.6,-3806.2,-3984.9,-4621.8,-5747.2,-7211.2,-6090.4,-1531.5,2853.9,5395.8,1997.1,-4051.7,-3887.6,462.05,3014.8,449.25,-1563.9,-2180.2,-2400.9,-2599.7,-2774,-1545.4,89.43,3053.3,4911.2,3917,3132.1,2914.6,2892.2,2598.4,1774.5,-2627.6,-10432,-10185,-6228.7,-3106.8,-2215.7,-2235.6,-1556.5,-884.13,-897.91,-1482,-2581.4,-3686.3,-3979.8,-5136.6,-5705.6,-5318.8,-4383.1,-1654.7,537.84,801.28,247.32,2346.4,2504.9,-190.47,-2321.4,-3270,-3977.4,-4023,-3302.1,-2713,-1139.7,1253.5,1159.5,301.53,-798.52,-1179.9,-215.5,213.75,-432.83,-686.64,-497.52,-34.351,295.2,335.01,869.71,1158.1,448.85,-1195.8,-2253.6,-2924.3,-3672.5,-3635.9,-1715.7,129.61,-180.45,-706.88,-151.12,-7.1555,-932.95,-1368.9,-784.55,-357.36,-254.09,-359.2,-1066,-2055.4,-2671.9,-2117.9,-564.71,-80.121,-1927.2,-4148.1,-5364,-5131.9,-4480.4,-2315.2,-364.03,2411.2,5875.5,4971.1,2120.8,3937,8899.1,13295,11253,-4784.1,-16643,-14579,-10856,-8919,-7710.4,-7699.3,-6840.8,-4804.9,-2488.4,-1173.2,207.32,2638,5398.3,5387.7,-763.61,-4259,-1865.5,-817.86,-1235.5,-1752.5,-1520,-1451.6,-2529.2,-3788.6,-3242.8,-1531.9,-391.61,-720.39,-1579,-2189.7,-2509.3,-1851.4,-584.26,575.07,92.696,-1609.2,-3486.7,-4467.2,-4043,-2845.2,-2514,-1766.5,1204.8,4219.7,4269.7,2559.9,829.4,-118.32,-69.719,-133.08,-2124.5,-4651.6,-4737.3,-3758.5,-3096.7,-2331.7,-1299.1,-1064.9,-979.67,-1395.4,-2470.6,-2931.3,-2479.1,-3857.4,-6324.1,-7515.4,-5791.7,-1350.7,4584.8,10136,16529,19218,14956,6607.8,-9553.8,-15882,-7980,-3253.7,-3633,-2851.3,-94.79,-513.44,-1039.5,-553.35,-441.41,-1057,-1872.6,-2904.9,-3530.8,-3890.8,-4798.9,-5839.5,-6364.2,-6071.8,-4890,-2209.6,1623.7,2939.5,1524.1,547.05,-731.32,-2201.3,-2404.6,-1913.5,-1557.1,-744.6,196.66,1416.8,2659.1,1932,194.13,-900.1,-2446.4,-3677,-3447.2,-3431.2,-5375.7,-6125.5,-2210.9,-1194.2,-4108.8,-6811.1,-6557,-4306.4,-1678,1410.5,4838.9,7867.3,4652.4,-2194,-4479.3,-3824.1,-2813.5,-2519.7,-2568.2,-2591.5,-3338.6,-3164.1,-1526.6,693.22,1116.3,3.4191,-822.96,-1431.9,-1753.6,-1280.7,-55.798,1230.1,1861.2,2283,2633.3,3132,2286,-4587.1,-10850,-9522.5,-7653.1,-6803.6,-4606.5,-2226.9,-1835.6,-1252.5,202.73,975.83,2935.3,4260.7,3237.1,1378,1161.6,2462.8,3855,4451.6,3829.1,1190.8,-3746.3,-6141.5,-5635.3,-6815.6,-8503.6,-8482,-7439.8,-5185.6,-387.19,5837.7,5652.6,2202.8,677.26,-228.08,-918.02,-865.13,-275.97,236.12,265.74,-241.12,-1111.7,-1363.4,-1354.5,-403.69,76.225,-636.71,-1313.8,-1545.6,-1129.1,-936.51,-1339.3,-896.39,-350.42,408.08,380.64,-357.47,-1018.1,-2313.4,-4198.6,-4968.8,-4246.5,-3668.9,-3784.9,-4373.9,-3918,-2177.2,2306.5,6485.1,8467.1,6842.1,597.04,-2451,-2041,-1952.1,-2096.9,-1180.4,-372.45,-781.69,-1768.4,-2246.4,-2361.5,-2459.4,-2841.7,-3289.8,-3175.7,-2326.5,-1356.2,-695.22,-426.5,-982.09,-2192.3,-2679.1,-2109,-1345.2,-1326,-1419.2,15.563,1763.3,776.09,-2015.2,-4021.6,-3405.6,-2611.5,-2077.1,-1793.3,-2339.2,-3102.1,-2812.4,-1678.9,-863.29,-767.04,-1350,-2490.6,-2839.5,-1962.4,-1754.7,-2056,-2046.3,-1970.4,-1547.4,-1182.8,-503.7,-469.26,-1282.2,-2021.4,-2223.6,-1667.7,-1466.1,-2432.7,-3368.5,-3282.6,-2755.7,-1491.5,-839.98,-216.73,857.56,988.68,-604.79,-2175.1,-3116.6,-2645.8,-1433,-826.85,-1343,-2226.9,-2468.5,-2344,-2082.5,-1605.7,-1273.9,-1604.6,-1822.8,-1830.1,-1936.4,-2250.5,-3264.6,-3884.5,-2978.4,-1072,892.23,1775.4,990.39,471.97,-474.19,-1838.6,-3095.1,-3667.7,-3985.8,-3897.5,-3068,37.548,5103.6,9295.8,8310.8,611.68,-3673.5,-3389.5,-3681.2,-4184.9,-3340.9,-2019.7,-1095.1,-338.88,253.97,535.07,523.61,303.95,-159.33,-1095.7,-1910.9,-2317.9,-1831.6,-1327.8,-1289.9,-1372.9,-1814.5,-2186.5,-2049.9,-1734.3,-1611.9,-1700.6,-2051.9,-1630.3,-1197.3,-1047.8,-1752.6,-3713.7,-5104.4,-5072.1,-4326.8,-3927.6,-2218.6,2042.1,4599.2,4159,3225.5,2454,1859.6,1789,1704.1,580.64,-339.95,-1165.3,-2107.9,-2631.8,-3009.3,-3818.3,-3001.3,-69.866,3259.1,5171.2,1324.7,-3576.9,-3813.5,-2050.3,-894.06,-355.57,-930.49,-2255.6,-2470.2,-1911.4,-67.907,-37.195,-25.161,-105.51,-515,-819.71,-966.05,-1256.2,-1330.5,-1304.9,-1038,-742.21,-677.38,-601.55,-408.37,-564.49,-544.68,-216.73,-378.25,-281.25,5.2456,-64.413,-554.37,-802.23,-770.33,-1020,-1495.7,-1515,-1584.3,-1442.9,-883.02,-536.32,-573.86,-710.17,-692.94,-293.34,198.12,-10.418,-371.96,-329.33,-649.56,-1166.9,-1750.8,-1992.4,-1696.4,-1118.7,-914.24,-1084.9,-1281.5,-1492.7,-1508.6,-1294.8,-990.28,-1035.6,-1063.4,-595.61,-178.28,-355.4,-661.1,-999.7,-1336.3,-1152.4,-819.47,-840.12,-1105.8,-1407.7,-1387.4,-1502.7,-1360.7,-927.58,-1042.3,-924.8,-684.11,-589.31,-478.49,-881.72,-1445.1,-1676.5,-1640.7,-1863.4,-1949.9,-1373.5,-1214.1,-1468.9,-1664.8,-1824,-1796.7,-1268.2,-962.43,-1007.5,-1327,-1723.5,-2151.5,-2332.1,-2212,-2071.1,-2080.8,-2277.6,-2422.6,-2631.3,-2400.7,-2204.2,-2153.5,-2198.3,-2432.2,-2139.2,-1887.8,-1941.1,-1986.2,-2144.4,-2316.3,-2356.6,-1965.8,-1713.6,-1792.8,-1850,-1800,-1753.6,-1387.2,-1460.4,-1593.5,-1394.9,-1631.4,-2018.1,-2122.3,-2708,-3194.8,-3249.2,-3032.3,-2741.4,-2194.8,-1920.9,-1988,-2206.4,-2203,-1863.1,-1136.9,-693.25,-809.28,-1055.5,-1128.8,-1354.3,-1684.3,-1944.6,-1780.3,-1369.7,-1243.9,-1410.9,-1670.3,-1779.1,-1911.1,-1663.2,-1263.4,-793.08,-586.39,-332.74,-538.12,-773.53,-1243.2,-1625.3,-1378.6,-1329.4,-1108.4,-1015.6,-1060.5,-942.58,-916.49,-819.46,-1039.9,-1183.3,-1017.9,-630.64,-386.39,26.916,98.709,-404.17,-968.15,-1492.7,-1481.6,-1240.2,-1446,-1619.3,-1774,-1546.1,-1210.1,-1365.7,-1521.2,-1159.8,-691.05,-164.17,-116.9,-148.39,-336.03,-899.76,-1515.6,-1803.5,-1697.8,-1533.1,-1331.9,-1161.3,-1297.2,-1248.6,-1260.1,-1365.6,-895.45,-433.8,-544.13,-813.92,-768.55,-832.63,-1082.1,-1354.2,-1605.1,-1651.1,-1477.3,-1383,-1599,-1360.9,-585.5,-170.07,-86.464,15.773,-53.458,-230.8,-358.73,-525.41,-612.32,-578.53,-869.48,-943.12,-944.39,-739.22,-689.14,-899.76,-1416.5,-1813.1,-2372,-2487.7,-2424.7,-2137.4,-1489.9,-367.43,-88.42,-598.83,-845.76,-1071.5,-1182.3,-1536.9,-1697.8,-1724,-1732.5,-1556.7,-1183.4,-674.05,-59.678,-54.353,-580.72,-535.15,-594.33,-827.21,-754.48,-510.86,-582.84,-1056.2,-1417.5,-1167.7,-980.23,-1039.3,-1035,-1034.6,-915.16,-872.34,-814.29,-421.95,-464.61,-414.5,-368.36,-488.48,-503.06,-684.54,-961.3,-816.83,-705.92,-865.97,-1002.6,-1117.5,-1174.9,-1460.3,-1782.3,-1706.3,-1706.7,-1419.4,-1059.9,-758.45,-417.86,-807.81,-1430.5,-1564.4,-1399.7,-1536.8,-1262.6,-865.27,-974.13,-1178,-1379.3,-1712.3,-2047.7,-2093.1,-1907.5,-1544.1,-789.04,-351.39,-460.54,-766.75,-922.37,-900.1,-841.46,-923.33,-1172.4,-1216.2,-1489,-1902.6,-2447.6,-2414,-2145.9,-1979.6,-1504.8,-1225.4,-875.3,-969.52,-1497,-1483.8,-1234.7,-1567.4,-1791,-1705.4,-1381.7,-1331.1,-1800.1,-2138.3,-2317.9,-2428,-2054.8,-1628.4,-1673,-1916.1,-2141.1,-2641.5,-2884.2,-2978.2,-3039.7,-3153,-3393,-3282.6,-3091.1,-2754.1,-2667.8,-2863.9,-2691.9,-1878.5,-1446.1,-1735.3,-1962,-2283.2,-2357.9,-2072.8,-1835.2,-1869.1,-2099.9,-2262.9,-2259,-2211.8,-2816.6,-3234.4,-2808.6,-1997.6,-1279.2,-703.77,-907.51,-1462.2,-1758,-1939.3,-2009.9,-1617.4,-1170,-1419.5,-2081.8,-2625.8,-3059.1,-3162.4,-3217.8,-2839.1,-1975.4,-1452.4,-1433,-1730.4,-1761.4,-1658.8,-859.92,-331.77,-507.19,-551.39,-799.12,-1313,-1968.6,-2767.8,-3186.7,-3082.5,-2641.4,-1914,-1343.6,-1204.6,-1592.9,-2068.5,-2311.8,-2099.6,-1617,-1405.7,-1261.6,-1638.7,-2161.2,-2459.5,-2845.1,-2976.6,-1903.8,-693.42,291.82,743.89,835.65,944.32,608.75,424.18,442.43,379.44,234.35,193.82,57.703,-47.78,-747.7,-1674.3,-1719.7,-968.05,401.81,1610.8,2188.2,2890.4,3546.7,3850.9,3542.6,2580.6,2220.2,2964.1,3559.1,3472.8,2443,-2180.7,-6475.7,-5197.8,-3141.5,-2347.8,-1447.6,-1749.5,-2223.1,-150.36,3799.4,5859.4,6295.7,5119.5,2713.1,108.54,-1473.6,-915.93,733.37,1565.3,3066.9,4733.9,5913.4,7640.6,7145.3,3980.4,790.12,-1140.4,-2125.3,-4040.4,-5149.9,-4904.5,-4390.6,-3995.4,230.67,4701.6,2736.8,-455.94,-2401.2,-1975.6,1330.8,3073.6,5199.2,10069,13850,16034,16417,14218,8229.3,2451.5,-658.43,-2592.8,-2196.8,-1365.5,215.72,735.19,401.04,3267.7,7984.7,9441.8,6235.2,1401.2,-4216.4,-7201.2,-4222,-3880.7,-7187.6,-9799.7,-13847,-19919,-20626,-16178,-12013,-13029,-16777,-21310,-22428,-18973,-18262,-22510,-32793,-38403,-38375,-33569,-23785,-12018,-5177.9,-4700.8,-13039,-17790,-13524,-14066,-18357,-18390,-16137,-15438,-13138,-5818.6,12402,23190,17979,18248,20765,16716,7725,-416.57,-6125.3,-11579,-12231,-5808.9,-5945.7,-9894.5,807.06,17979,18280,11822,9592.4,9335.3,12220,16392,18019,14471,7248.5,4298.4,4993.3,4253.2,2264.3,-1146.5,-5985.9,-9474.6,-5638.5,4383.7,3487.7,3836.7,10973,6799.5,2482.3,2979.5,3452.4,6223.8,8802.4,15511,18649,12800,9955.2,5030.2,-981.06,3321.3,13265,15096,16201,22708,19818,6640.4,-3668.5,-7548.3,-9937.7,-6229.3,-2315.7,-823.24,6356,12190,6871.5,-106.82,-2444.9,-2857.1,-3180.7,-4315.5,-2633.6,357.05,-583.5,-4358.3,-6891.2,-7556.1,-9822.4,-12971,-11284,-3160.6,254.29,-3271,-6004.1,-7545,-13547,-17204,-18885,-18624,-12171,-1100.9,12554,16025,1055.6,-11754,-15025,-16071,-14662,-8196.6,3678.5,14773,15435,6040.2,-872.77,-4408.9,-5523,-4405.4,-2230.4,-53.696,1353.2,964.68,1065,1018.5,-2257.8,-5250.8,-6542.7,-7744.8,-9622.7,-9801.4,-6804.3,-3005,609.45,672.75,-2419.5,-4743.9,-6255.3,-6668.3,-6441.4,-6119.1,-7840.1,-6148,-4693.2,-7083.3,-10482,-10306,-5544.5,-3235.4,-7149.6,-11484,-12222,-12895,24.807,18443,15436,5533.2,5148.8,9708.4,9885.1,9256.3,2775.8,-4073.3,-1525.2,1962.9,4622.1,5200,3758.2,1591,-2289.6,-5346.8,-4230.2,-986.77,567.2,-635.88,-1393.7,-1597.6,-2249.1,-1378.8,765.46,-1654.6,-5557.1,-5307,-3382.5,-3297.8,-6473.6,-7009.7,-5278.7,-2421,1391.4,7133,8278.2,3183.4,976.87,2163,2649.9,2027.7,-249.62,-3934.7,-10165,-14088,-12414,-9869.1,-7479.4,-2712.8,4484.9,5781.4,1841.4,850.55,248.61,-1250.5,-2656.2,-3606.1,-3738.3,-4163.5,-2677.8,-291.79,-455.62,-2364.4,-4524.5,-5578.2,-5488.9,-5020.1,-2810.6,3376.2,12123,17095,17525,8615.5,-4739.2,-13269,-15815,-13351,-11709,-8998.2,-3892.5,-1867.3,930.94,3960.3,5591.7,4601.2,1210.7,-1214.9,-3380.8,-4268.8,-2349.6,1406.8,3963.3,7143.1,6589.8,1901.4,1250.3,2276.4,2189.1,2139.1,745.77,-1235.2,-2930.7,-3802,-2717.9,-522.27,3587.7,7165.4,3155.3,337.86,-42.424,56.657,681.7,202.32,-1083.3,-1727.9,-206.01,1397.4,1387,1625.8,696.98,-2113.9,-4427.4,-4741.1,-4142.7,-4286.9,-3297.7,-96.04,2057.4,1270.5,182.88,-532.25,-763.68,-1398.3,-375,846.52,-345.39,-3862.4,-6500.4,-5427.8,-4491.2,-7063.5,-8781.5,-4663.3,-1474.4,-1007.1,2126.7,6229.9,2628.5,-2335.1,-3969.1,-4524.8,-4461.2,-4103.7,-4622.1,-4305.4,-1273.6,1996,4383.6,5384.1,5354,3961.1,-90.108,-1293.6,-1926.5,-7071.5,-7871.2,-3669.7,-262.44,1502,-5824.3,-12450,-10889,-9164.2,-5683,-3197.6,-3098.6,-1102.9,1821.9,4998.3,9174.9,7074.6,-1858.1,-6250.5,-4397.1,-2725.8,-2452.5,-3075.5,-3819.1,-3119.6,142.31,3889.4,5110.1,4608.8,1604.1,-7507.4,-10552,-4231.6,-171.34,-664.29,-4831.9,-6473.3,-4852.7,-3720.7,-4763.6,-5138.3,-2995.8,-1729.7,-2689.8,-4032.5,-3207.8,662.61,3495.1,2380.2,-485.78,-2744.4,-4207,-6067.9,-5978.9,-3732.9,-277.72,3686.5,8911.1,9584.6,2943.7,-1756.2,-1567.4,-808.48,-3.2786,134.59,-409.56,-508.35,-594.82,-155.41,-67.123,40.692,475.18,485.8,378.44,604.72,1098.9,733.3,368.34,921.43,-2371.4,-8460.2,-6368.9,-2032.7,-487.14,576.44,1595,1145,-960.54,-2933.7,-3049.9,-821.12,1768.8,1547.3,227.12,-1005.1,-2449.7,-3266.2,-3421,-2384.6,189.78,2695.9,2028.5,-4648.1,-9255.5,-6523.7,-3462.1,-2911.4,-3445,-2833.1,-3032.8,-4028.6,-2394.5,-1320.5,-912.39,1297.5,3603,4939.8,821.86,-5161.4,-5858.6,-3635,-326.04,1316,1177.8,-352.11,-1780.6,-672.01,570.35,-165.4,-2357.7,-2866,-2664.4,-3045,-4001.9,-3287.2,-1270.6,-1108.2,-1856.9,-3301.9,-5043.2,-4883.9,-3680.2,-2890,-1437.4,2622.9,3121.5,1468.2,1316.8,2009,2315.7,2162.6,2311.4,1985.8,-232.52,-3379.2,-5622.3,-6085.3,-4656,-2655.8,-2657.7,-998.97,2632.7,4237.5,3940,-1592.8,-7189.9,-4720.2,-854.69,1567,570.19,-1941.3,-4154.1,-5905.4,-6371.9,-4379.9,-2005.5,-227.24,1520.1,3612.3,5885.5,2355.6,-2681.2,-2369.2,-210.48,2158.8,3759.5,3846.8,2836.4,1722.1,1065.4,862.55,85.209,-1915,-4558.6,-5877.1,-5132.9,-4631.3,-4780.6,-3974.7,-3582.2,-2021.8,-79.812,1553.1,2365.1,597.63,-1247.2,-1308.2,-696.37,-1237.6,-774.03,-852.36,-2731.2,-3900.9,-2518.8,-1692.7,-1968.4,-1615.9,-1508.9,-3162.5,-3389,-1866.1,-2202.2,-1877.6,149.5,2002.1,21.941,-3839.1,-4514,-1102.7,1616,1925.9,2817.8,1016.6,-7533.3,-12105,-9503.4,-6645.3,-2312.2,2606.7,4340.6,4873.6,2135.7,-757.35,-172.53,1376.5,516,-1026.4,618.23,1272.5,-6106.2,-9162.4,-5473.8,-2010.3,-253.89,1303.3,2917,5279.7,5573.7,172.08,-4910,-5275,-4830.9,-5609.8,-5613.5,-5054.5,-5154.3,-4476,-2737.7,-1031.1,-861.82,-1598.5,-2165.3,-1503.4,-114.42,9.9191,-412.6,115.54,-648.95,-2070.3,-2394.4,-2748.2,-2439,-2981.8,-5409.6,-6121.2,-5383.8,-4859.1,-1033.7,4415.6,5038.1,2988.4,-197.29,-1951.4,-2732.6,-3500.7,-2689.9,623.35,4570.1,8999.7,6953,1986.4,2201.2,3068.9,1944.1,94.988,-1537.1,-3357.7,-3778.3,-3148.6,-3156.2,-4158.4,-4952.3,-5244.5,-3949.8,-1493.4,144.28,1165.6,1963.3,1858.1,830.44,-921.53,-3044.5,-4018.1,-3500.6,-2265.1,-745.02,396.34,255.45,-577.46,-1659.9,-2849.3,-2029.9,385.01,1347.5,1068.4,2583.5,3407.6,3005.8,2448.6,-2944.9,-10147,-8707.4,-5826.1,-4783.9,-2684.2,-4272.1,-7035.6,-7316,-7026.3,-7018.2,-5796.5,-2728.7,2172.2,6490,7891.5,8046.1,3388.1,-2915.6,-4206,-4095.7,-2943,-494.27,890.24,723.04,-614.73,-1321.9,-451.47,1448.2,1442,-5097.3,-9355.9,-6477.3,-3079.1,804.9,3791.7,2648.3,-354.54,-2752.1,-3204.8,-2418.1,-1637.5,-1256.8,-582.92,288.5,177.54,498.97,322.13,-886.56,-1886.1,-1730.9,-1201.6,-841.79,-550.7,-60.44,-246.29,-1266.6,-2818.4,-4277.6,-3790.7,-1980.2,-1190.9,-2386.9,-2919.3,-3013.6,-6176,-9879.6,-10502,-7239.7,-780.02,4850.9,6692.7,8908.8,7738,2235.7,1471.1,3123,4130.3,4596,717.82,-5663.4,-4536.7,-1890.3,-1053.1,-846.01,-780.77,-1084.5,-1324.1,-1432.6,-1660,-2391.2,-2902.8,-2687,-2020.3,-1864.8,-1675.2,-919.2,160.09,469.97,-636.01,-3257.2,-4940.3,-3458.7,-1261.9,-260.38,-835.19,-1057.3,-581.09,-787.66,-1170.9,-1196.4,-875.24,-239.05,171.54,-527.14,-1066.2,-689.49,-169.54,-165.27,-657.84,-1093.4,-968.82,-801.12,-845.04,-807.44,-1326.5,-1689.8,-1589.9,-1494.6,-1819.4,-2351.3,-2146,-2019.9,-3174.5,-4206.8,-4523.2,-5207.7,-7062.5,-8696.7,-6166.6,-2097.1,-2466.5,-4473.9,-1182,3630.4,5697.6,6352,1777,-3233,-2321.2,-1433.3,-1595.1,-2584.4,-4072.8,-4305.2,-3947.5,-3291.8,-3024.8,-2297.7,-2587,-2413.3,-1977.8,-1780.1,-342.82,560.24,-58.622,-1359.4,-2741,-986.14,3428.7,6370.1,5698.3,2867.1,942.93,1885.8,4637.8,5518.8,2208.1,-7587.6,-10180,-6178.3,-3748.2,-1177.1,585.07,470.24,-817.11,-2115.6,-2483.3,-2804.6,-3538.2,-3688.6,-2648.4,-2653.8,-1992.1,-1046.6,-1290.2,-1792.4,-6852.5,-13654,-11025,-2604.1,4106.6,227.01,572.37,937.43,1099.6,1597.3,1040.2,-1910.6,-5889.6,-5115.1,-2612.9,-1350.8,-746.55,-752.33,-695.75,-609.31,-858.29,-1847.6,-3362.6,-4131,-3294.5,-1422.1,1318.2,3291.6,2469.1,-933.36,-4404.4,-4216.2,-2178.4,-568.38,419.3,31.312,-1483.9,-2948,-3771.4,-4446.9,-5219.6,-5354.4,-4276.8,-3786.6,-4975.9,-625.1,2977.5,1632.4,183.81,-295.14,-159.83,38.134,678.37,1532.4,2892.4,3567.2,2401.9,-985.94,-4516.3,-4552.8,-2962.2,-1763.7,-1239.5,-1137.4,-901.2,-223.83,603.67,946.87,888.42,469.19,34.878,-191.19,-250.67,-1249.2,-4154.9,-7330.1,-6743.4,-4437.4,-2753.3,-1115.9,-1567,-2173.3,-2039.9,-1535.7,-1200.6,-1697.2,-2601.2,-2755.9,-3051.9,-3545.3,-3803.7,-4011.7,-3240.7,-1449.8,896.13,2904.4,4698.8,3283.1,-3020.8,-6330.9,-5514.4,-3657.2,-2970.2,-3109.7,-3095.8,-2551.7,-2086.9,-1281.3,-245.11,849.66,1293.8,-1037.8,-1439.5,-365.17,-351.68,477.23,1041.2,-3841.6,-10472,-7386.9,-2580.2,-1336.7,-1764.5,-2080.5,-2269.6,-2657.3,-2790.7,-2290.3,-2127.3,-2214.5,-2008.4,-1706.5,-1393.4,-1106.5,-564.03,-591.66,-1378.3,-1869.5,-2046.6,-2076.9,-1866.4,-1565.1,-1132.7,-555.27,-11.95,-262.22,-1101.4,-1981.3,-2494.4,-2217.1,-1500,-1036.9,-1262.8,-1496.4,-1633.5,-1127.5,-748.25,-784.11,-1136.1,-1325.8,-1195.9,-1063.2,-1726,-2812.6,-3260.6,-2506.3,-1138.5,-631.81,-488,-977.57,-1907.3,-2350.6,-1884.5,-1139.9,-1232.2,-1842.9,-2241.5,-2182.9,-1653.5,-1149.3,-1227.9,-2067.5,-1618.7,512.31,2819.3,3422.7,2693.9,1704.8,131.03,-769.61,-542.13,146.42,1233.9,3109.5,4753,5509.3,5565.4,5095.8,4364.8,3615.1,1669.7,-2892.5,-4171.8,-1198.6,1575.9,3511.4,6036.1,9522.6,11538,6778.3,-3792.1,-14847,-18082,-11867,-7477.2,-6248.6,-5408,-5731.5,-2855.2,1557.8,2601.3,730.36,-901.86,-810.99,-105.52,276.52,542.65,1155.6,1721.7,2017.3,2094.6,1980.1,1497.5,30.41,-2996.5,-4197.6,-3079.6,-2394.3,-2031.8,-1175.5,-567.52,-1124,-2893.6,-3561.4,-2210.6,-1665.4,-1664.5,-1867.2,-2244.4,-2012.2,-1522.4,-1196.4,-1473.7,-2029.1,-2777.7,-3857.7,-4666.8,-4363.8,-3337.2,-2518.6,-1945.3,-865.9,205.04,917.21,1955.9,2760.6,766.51,-2683.1,-5703.7,-6279.6,-3238.2,811.04,2759.3,3121.1,-77.39,-2520.1,-234.11,-133.64,-384.81,-393.01,-1230.1,-2698.1,-3674.3,-3102.5,-2810.8,-2835.3,-1707,-1358.5,-2097.7,-2667.8,-2406,-1619.3,-869.41,-531.72,-680.46,-1222.3,-1933.9,-2937.5,-3753.8,-3316.8,-2087.4,-1526.9,-1458.1,-2196.5,-3185.6,-2708.1,-1284.7,-506.88,-27.262,1169.7,3248.2,5561.6,5941.4,-335.78,-6241.9,-10171,-10403,-6212.9,-2018.5,1451.4,1811,-1930,-2061.9,1789.3,1256.6,-2208.2,-6345.3,-12909,-12265,-8032.4,-5835.8,-4127.9,-1325.8,15.036,-655.91,-1256.6,-1855.9,-2571.1,-3133.5,-3360.4,-3556.2,-3989.5,-4526.5,-4355.9,-4294.6,-3004.8,-517.37,-480.28,-1574.9,-1679.1,-841.18,70.482,694.69,496.45,-41.714,-316.54,129.22,493.05,-2484.3,-6527.6,-5082.3,-2749.9,-1371.7,-1082,-2239.9,-3560,-3599.5,-1846.7,547.17,2044,1644.2,-560.37,-3815,-3319.8,533.42,3080.6,3552.4,3014.8,2944.8,2780.5,1725.7,605.17,1546.6,3537.4,3691,60.157,-3443.4,-2750.4,-2417.9,-2917.3,-2622.7,-1554.4,-727.49,80.958,935.49,1475.1,1689.7,1933.6,2296.5,2641.3,578.26,-4803.2,-4713.1,-1068.3,-476.03,-1202,-1325,-228.5,1629.8,3763.5,6513.9,7022.3,213.46,-7711.7,-5639.1,2528.3,5717.3,4750.1,626.37,-5223.3,-6489.2,-4656.1,-3731.7,-2883.5,-1925.7,-892.5,295.89,413.81,178.85,656.32,1484.5,2823.6,4971,4930.2,2386.2,-2187.8,-4100.8,-2284,-1138.4,-970.26,-2397.1,-4544.7,-3706.1,-395.05,821.56,212.85,-406.44,-1006,-1606.9,-2145.6,-2057.7,-1778.6,-1355.3,-675.53,-600.63,-1165.4,-1285.9,-950.57,-176.31,913.98,1084.1,674.55,748.46,863.38,613.11,519.1,450.49,543,934,1044,391.96,-788.88,-1841.4,-2131.5,-1728.3,-1560.9,-1329.2,-841.6,-454.67,-554.91,-1096.3,-1918.8,-2058.2,-2216.3,-1624.7,289.8,1182.1,-244.46,-2451.8,-4124.7,-4647.1,-4991.5,-5013.5,-4907,-4642.5,-4282.1,-3684.5,-3291,-3487.3,-3982.4,-3476.1,-1968.6,-1236,-1302.3,-1442.2,-1920.3,-2610.9,-2938.3,-2590.7,-1488.3,-240.18,144.83,377.25,485.43,572.1,801.49,1160,145.53,-972.37,-1400.8,-2709.8,-4879.9,-6350.9,-6319.6,-2937.3,2017.4,4474.8,4067.7,4060.8,3872.9,1827.2,-504.14,-1201.8,-365.96,1417.1,2497,2573.5,2349.3,2422.9,2308,304.62,-2382.8,-4603.3,-6180.3,-7963.9,-9813.3,-10427,-9577.8,-8015.7,-6488.6,-5407.7,-4727.1,-4902,-6075.6,-9651.6,-15635,-20836,-23357,-24650,-23353,-18437,-15065,-10070,-5334.5,-4766.8,-6173.9,-8341.8,-9898.5,-10029,-14623,-19536,-17657,-13000,-9134.9,-8495.4,-10767,-8269,-2969.2,-3211,-7214.4,-2638.8,3651.5,2910.1,345.28,5001.1,9295.5,7475.1,9629.8,17879,18211,14472,9526,3944.3,-6132.9,-18049,-21820,-12407,-823.01,2038.2,-2512.9,-7726.2,-5536.7,4208.6,13838,21344,19570,12459,10605,10850,9514.6,6631,6374.6,13519,18541,16812,15035,11814,9300.8,9770.4,11071,9779.9,7022,9118.9,13099,16045,17675,16800,17702,20775,22751,17020,9194.1,6063.8,7096.7,8442.9,10570,11216,11577,12941,14138,11980,7191.1,4026.8,3380.4,5117,7903.7,12234,13057,11654,12661,15925,16319,14290,11904,12187,12513,14152,15044,10087,7150.3,8892.6,3098,-6795.2,-17868,-25578,-27030,-27255,-32028,-31336,-26353,-23522,-22931,-27408,-30531,-27178,-25464,-26442,-27202,-26099,-24334,-25313,-27520,-26408,-26203,-30313,-29643,-21331,-16522,-18809,-20920,-24235,-31346,-34790,-29330,-17995,-8940.5,-7551.3,-9752.4,-12840,-13069,-12112,-12561,-11751,-13647,-16965,-13205,-3587.5,3953.9,5807.5,5241.2,6503.9,4766.8,-7123,-22109,-22066,-11614,13.541,7345.9,6981.9,390.58,-2863.9,-1822.6,3708.4,7265.1,9771.9,13225,17879,18396,11815,8661.2,11610,13014,12706,11912,8148,1879.3,-4577.7,-8296.6,-10273,-9161.4,6806.8,21451,20249,11553,8717.2,9431.6,8312.2,8096,12113,13684,7795.8,-235.4,-1611.6,5267.4,9833.6,6814.4,1553.2,-2054.2,-414.7,5035.4,7354.5,3669.6,1589.7,3711.2,6496.3,8245.5,6229.6,2930.4,5326.1,13064,13847,8778.8,8464.4,9177,10470,7897.1,4869.1,9645.3,14271,11141,5915.3,4281.1,7196.7,10352,14534,17456,16619,13096,9030,6750.8,4856.9,354.79,-4316.6,-6153.1,-4563.3,-420.29,4293.6,4566.9,1732.6,334.15,-571.01,-5005.2,-9635.2,-13701,-14693,-7682,2294.8,2835.5,-2799.9,-7505.7,-9362.8,-9225.3,-9155.2,-9157.7,-5344.7,-4827.6,-6628.1,-9650.2,-13678,-17598,-19779,-20062,-17752,-13107,-4692.1,1232.5,596.94,-2433,-6128.3,-9547.2,-10234,-8094.7,-5718.6,-3147.5,-843.81,-2488.2,-4199.9,-4483.3,-7234.1,-10457,-12836,-15106,-12932,-9346.1,-9085.1,-8017.9,-3683.1,-186.12,-243.16,-1729.7,-1419.6,-1430.2,-2273,-1624.9,-1015.5,-2799,-4110,-4830.3,-6829.1,-9625.4,-10295,-8953.8,-8102.6,-6285.7,-3778,-4033.3,-4571,-2907.7,33.63,2494.3,2052.5,3134.5,5114,1988.9,-2896.4,-3529.7,-1131.4,-1188,-1064.3,-402.44,169.29,-176.54,2.9033,-638.66,-166.29,2385.8,6421.1,8514.2,5887.6,-294.77,-7025.1,-8412.5,-5427.3,-715.64,4592.7,10117,11440,6482.4,1686.6,-1553.7,-2870,-2985.4,-433.22,4131.4,5214.3,-802.83,-8101.5,-10108,-9928.7,-6194.8,-2585.4,-4039.1,-4387.9,-1437.1,-815.48,-1880.3,-312.15,2914.5,4708.5,4752.9,3356.5,1564.4,397.48,-510.98,474.96,1101.8,-441.83,-2760,-2927.1,-569.6,-822.38,-636.94,496.77,1152.4,2568.4,1508.3,-104.46,79.632,-325.59,-1116.9,-1488.2,-1821,-2669.8,-3112.5,-2776.7,-2726,-2261.2,-1513.4,757.24,3788,2603.4,-797.17,-2620,-1565,1756,1820.6,1124.3,-11.59,-443.52,-384.05,-1921.6,-2340.9,-2045.3,-2222.5,-3363.1,-5483.3,-5334.3,-2975.1,-158.05,1825.6,448.32,-2704.5,-4085.9,-1549,-341.3,1879,4952.1,8218.6,7837,5539,3280.5,865.39,-576.77,7.0699,527.39,324.52,282.04,1898.9,1626.1,-42.661,-1141.9,-1753.1,-1832.1,-1387.8,-1184.2,-2850.7,-1199.4,2545.1,3184.7,1885.7,1433.7,2776.1,3396,3064.9,2707.3,2139.1,2000.2,2396.8,2195.1,1499.9,702.85,3.9742,-202.16,769.83,1507.6,979.56,-66.835,-56.295,519.61,1068.9,714.58,1268,3629.3,4171.7,2899.7,619.16,-3318.4,-5934,-4424.1,-2713.3,-3732.5,-6719.6,-10117,-13918,-17261,-20538,-21289,-19047,-14379,-8752.3,-4340.2,-2570.7,-2279.8,-2912.1,-7012.8,-13428,-14702,-12545,-11816,-9410.2,-7660.7,-6817.9,-4366.1,-4911.6,-5097.9,-1804.2,924.84,754.51,-867.05,-870.95,344.31,-318.78,-2459.6,-3664.4,-3595.2,-1769.1,268,-79.401,-1764.7,-3258.7,-3656.2,-2945.4,-2233.9,-1468.1,-1497.4,-1750.9,-1048.4,1060.2,3750.7,4784.7,3423.9,1597.6,123.11,-797.65,-1026.1,-1249,-887.3,-715.12,-384.93,3250.5,6751.6,7837.4,6665.4,4347.4,2789.4,2175.1,1852.2,1562.3,1326.8,-265.16,-2313.1,-2748,70.116,1547,-1027.4,-2111.1,-617.62,534.31,1477.5,4107.6,5084.7,5610,5744.4,6634.2,8933.3,9885.3,9558.4,9947.6,11098,10505,10012,8287.4,4635.2,-61.836,-4353.9,-5202.4,-5531.7,-6678.8,-7914.4,-9173.4,-9796,-8425.2,-6565.5,-4944.4,-4633.6,-5653.2,-5425.4,-5629.6,-6069.3,-4329.8,-2758.4,-3362.5,-3769.5,-2703.5,-3175.6,-5270.9,-6063.5,-6391.4,-6424.6,-4755.8,-4340.9,-5083.2,-4737.3,-4985.8,-5315.2,-4682.8,-3900.2,-4252.4,-5705.5,-6696.6,-5860.1,-2646,1866.6,4878.4,4509.3,2855.1,1917.7,1627,1258,1348.8,2878.3,4547.3,4790.3,4647.1,4464.8,3056.8,1866,1581.3,1726.7,2738.7,4111.6,4292,4061,3138.1,3805.2,2418.7,125.79,-615.46,-349.37,557.05,566.09,-1030.4,-1154.5,-602.07,-1144.1,-2535.3,-5143,-8267.9,-8859,-7670.4,-5337.6,-4905.4,-7039.9,-6815.8,-5121.8,-4398.9,-5254.5,-6043.1,-7267.1,-7161.8,-6361.1,-5819.6,-4853.6,-3240.4,-2538.9,-3085,-2227.2,-1654.8,-1995.6,-2062,-1058.5,222.13,393.67,-1073.5,-2966.3,-4744.2,-6361.6,-5918.6,-5448.8,-6953.1,-7449.6,-6358.4,-3882.5,-2076.6,-1189.2,-1068.1,-643.45,-70.622,-814.9,-2162.6,-2398.4,-1753.6,-2162.8,-3049.6,-3696.4,-4177.3,-3652.6,-1910.6,-2185.1,-3201.5,-3278.5,-2165.1,210.15,1022.2,-648.5,-989.24,437.14,1797.4,3073.1,4310.4,3904.9,2310.5,1022.5,1884.8,3195.4,3629.3,3197.1,2272.2,1885.2,2788.2,4462.8,5747.4,6267.4,5573.8,3350.7,787.28,208.04,148.79,-526.3,514.34,2373.9,2695.8,2.1158,-1937,-2368.3,-3637.6,-5378.4,-8890,-10520,-8918.2,-7274.6,-4001.3,-834.65,1872.5,2685.8,3293,2722.5,1463,609.3,617.37,670.69,332.36,755.59,842.24,1024.3,520.37,126.99,1452.6,2797.1,3192.1,3079.6,3527.8,3051.4,2072.7,1172.3,2225.4,4303.4,4727.1,4014.1,4392.1,4153.8,2390.7,26.362,24.142,1785.7,3004,2010,2.6129,-1757.7,-3025.8,-3772.8,-5317.6,-7764.1,-6223.3,-3223.2,-4343.1,-4148,-2856.9,-4670.2,-9045.4,-11744,-10925,-9349.7,-7953.3,-7253.6,-7954.3,-9159.4,-8506.3,-5049.9,-3428.4,-4433.1,-3536.4,-1695.6,-2043.5,-7427.6,-12283,-13033,-13294,-11271,-6065.2,-1494.5,2733.2,7160.1,8389,7408.6,4320.1,-1269.8,-5312.7,-10604,-21625,-25857,-18929,-8206.3,2778.1,9447.2,11231,12226,10587,5886.2,2088.8,-186.49,-1.0697,753.81,994.02,1867.1,3586.6,4592.3,4334.1,3593.5,3090.1,2542.3,2458.2,3176,2645.8,1701.5,752.59,-2261.7,-5208.1,-5997.8,-2974.5,82.639,646.1,943.2,2013.1,2695.7,-1700.2,-8099.7,-10804,-7247,-5436.1,-6059.9,-4804.4,-3534.4,-4548.9,-6391.6,-4856.4,-2662.6,-3618.9,-6278.8,-6597.7,-4926.5,-3380.8,-1994.8,-909.8,-193.28,871.17,2627.6,4670.8,5540.2,4877.8,458.89,-5463.3,-6543.3,-7189.1,-5423.5,-3333.2,-3080.7,-3003.8,-2589.5,-2331.6,-2054.6,-1997,-2347.7,-2771.9,-3260.7,-3877.5,-3898,-3028.3,-1652.5,392.63,1771.1,915.88,586.35,579.41,-1058.4,-2225,-1197.7,-105.2,1059.9,2837.9,4316.8,4535.5,1391.2,-3352.5,-3422.6,-1153,-2178.9,-8979.9,-11387,-8811.5,-5228.1,-1702.8,1083.6,2887.7,5341.9,8108.5,9070.1,8766.3,9247.7,10099,11444,8436.6,-1154.5,-8271,-15462,-12903,-6357.2,-4640.9,-5219.8,-2704.7,-81.547,-1468.7,-2914.1,-3467.4,-3344.9,-2401.7,-1317.9,-760.9,-148.05,986.54,1287.5,2482.1,3955.8,4169.2,4772.6,5843.6,5212.4,-543.59,-8044.9,-8679.7,-4579.7,-2325.9,159.36,3769.5,5146.3,4974.6,5129.3,5384.9,3522.1,752.28,-4429,-4319.3,-1484.2,304.48,209.71,-456.35,-1493.6,-6823,-8977.6,-5456.8,-1617.5,1479.5,3851.2,5492.6,2479.7,439.11,1560.3,2780.1,3802.9,4469.8,4859,5172.8,4475.2,1094,-2994.2,-2383.2,-605.58,-1277.9,-3888.5,-1885,1809.2,3551.1,4118.6,2469.8,-1679.7,-4255.2,-5040.7,-4370.1,-2758.3,537.24,876.8,-2122.5,-3742.9,-2679.6,-1807.3,-1915.1,-1134.3,500.54,2088.6,3347.9,2448.2,-1623.5,-5980.5,-6419.8,-4294.3,-2149.6,-1218.9,-991.91,-3965.3,-8643.2,-8037.5,-6384.4,-5521.2,-43.126,6009.5,6483.6,3471.2,-1995.2,-3266.5,-1121.1,-469.57,-7716.4,-13107,-8179.9,-3109.5,-913.57,-1592.2,-3457.9,-4092.8,-3627.4,-2869.4,-2626.2,-2821.2,-3288.9,-3517.2,-3683.8,-5213.5,-6721,-6573.4,-5180.3,-3943,-2145.9,-988.55,-1880.7,-2704.9,-1566.1,-1159.5,-2000.5,-3626.7,-5794.3,-5408.8,-3655.7,-2809.9,-2615.6,-2669.4,-3104.2,-5006.7,-6223.8,-4204.9,-3312.3,-3607.4,-3343.9,-1521.2,849.9,2532.3,1605.2,-929.32,-3209.2,-7143.8,-11505,-11209,-8709.8,-4464.7,-1556.7,-1527.9,-2200.8,-2691.1,-3448.6,-4038.1,-4229.5,-5226,-5565.6,-3988.1,-2365.2,-1457.7,-818.66,-1988.8,-2432.5,-419.69,-1595.9,-4263.4,-3974.8,138.02,2247,-724.94,-3648.7,-4547.6,-5312.3,-4572.5,-1498.1,-424.78,-338.25,-538.71,-718.14,-982.96,-977.64,18.908,1104.4,1648.7,1442.7,838.61,670.96,1533.2,2086,724.08,-1856.9,-2066.6,-217.66,981.95,1311.5,922.99,668.93,876.66,1510.5,1745.3,1370.7,717.93,-127.85,-102.63,667.59,1271.4,1894.1,2871.4,3687.9,4045,4037.5,3551.3,2613.2,1999.7,2465,3132.7,3048.2,2435.1,913.79,-44.783,507.22,1406.3,2353.6,4124.3,6215,6717.9,6124,5752,5072,4321.1,4386.7,4565.4,4371.9,4308.8,3845.8,2975.5,2279.6,2293,2364.1,2611.8,3273.2,3790.9,4364,4757.9,4561.9,4077,2711.7,1662.1,1829,2311.9,2730.2,3131.6,3412.7,3012.2,2193.4,1073.6,79.156,-259.98,109.48,438.55,28.389,-1158,-2876,-3494.5,-2481.9,-1041.9,121.56,2670.6,6700.5,6727.2,2178.7,-4741.9,-11879,-18137,-22017,-21902,-19686,-15604,-10007,-2390.6,5134.7,5398.8,4306.8,5152.5,4478.1,4611.5,6554.5,6256.6,4662.5,2101.6,2622.3,4785.3,6056.6,3679.6,1688.3,6248.6,12152,14343,11896,5360.9,-2797.3,-11588,-19554,-26509,-31347,-31501,-27484,-23740,-15753,-2997.4,6240.7,11077,11326,6835.3,1318.2,-7826.7,-15893,-17605,-14670,-14360,-15207,-14449,-14939,-15646,-14878,-14676,-15178,-13416,-12589,-18401,-22726,-23882,-24854,-23098,-18575,-18496,-16595,-9496.5,-7670.7,-7435.9,-10124,-15216,-20343,-22406,-21086,-19127,-19164,-16705,-9010.5,-2127.9,-46.126,56.442,3967,7561.1,5373.6,6350.2,9249.6,3459.5,-1155.5,284.39,4821.8,13740,15634,10348,8018.4,4820,-3502.8,-5783.8,4324.8,18951,25451,23124,22906,28024,28539,24135,14540,7017.2,5323.3,7229.5,7570.2,6730.2,9728.3,9253.6,6958.8,4405.9,3717.5,8799.5,13970,14586,13400,18464,20344,14294,7705.7,3316.1,861.55,-483.56,3148.6,9867.1,11860,8702.1,6496.2,8524,8700.6,10935,15250,14776,11662,9777,7605.5,4452.8,2210.7,1377.6,2111.3,2801.2,3790.8,4700.7,2152.5,-2691.6,-3286.5,-2200.1,-3318.4,-4219,-5110.8,-3321.2,1726.7,1355.4,-3715.3,-8897.8,-12162,-12695,-7833.8,-3105.4,-1691.4,-635.91,-570.51,-1217.4,-1787,-3799.7,-3916,-1904.6,-1892.5,-4794,-6813.4,-8995.6,-9459.2,-9034.4,-7863,-5751,-4408.1,-3720.6,-6170.8,-9721.3,-11326,-10402,-8285,-7150.2,-8100.2,-8691.9,-11093,-13943,-11329,-4470.7,-2692.7,-4107.6,-6070.2,-8227,-9802.2,-10623,-8131.6,-5266.1,-4312.7,-6168,-8820.9,-11126,-12298,-13450,-12733,-8126.9,-6701.6,-8733.6,-7685.1,-5863.5,-4418.9,-4502.6,-5746.3,-7406.2,-8505.8,-10320,-14180,-14129,-10453,-7135.1,-3519.3,-212.23,-2312.2,-6037.1,-7197.4,-4079.2,-8.1377,1135.3,1024.6,670.75,-1688.2,-5224.8,-6183,-3482.1,-1827.5,-607,1611.8,2672,3453.9,4422,2108.3,1041.1,623.73,-1090.2,-2871.5,-2881.5,-2577.6,-3308.8,-2331.7,-1249.5,1192.1,2762.7,2914.2,2542.2,2389.9,2553,2459.1,953.83,-566.57,842.02,2169.9,1945.8,1114.9,-1819.6,-4698.5,-3796.6,984.08,3677.9,1826.3,1791.9,3156.3,3019.4,1372.4,17.026,8.0581,301.37,557.64,1127.7,2399.4,3460.8,2244.9,-368.83,-1352.6,-2194,-3069.6,-3836.2,-3888,1429.3,7006.3,8989,9728.8,8418.4,4427.8,2183.1,2098.6,2766.3,2696.8,1893.9,2259.8,3136.7,3180.3,3213.3,2467.4,1704.6,893.11,-535.47,122.86,3812.4,5640.5,2119.3,-2492.6,-5123.4,-5427.8,-1297.7,5395.5,4622.9,1112.9,-107.67,748.58,759.62,-1195.9,-3075.6,-1062.5,2529.4,4053,3001.7,648.4,-819.74,-572.53,1839.8,2985.7,2644.8,2404.1,1570.4,775.45,222.35,-171.45,636.22,1212.4,-1558.6,-2918.2,-2342.2,-2103.2,605.97,3664.2,2617.5,-86.29,-1374.2,-1691.8,-928.64,-1480.7,-3402.6,-6340.5,-8808.9,-8514.6,-6408.8,-4050.2,-3347.8,-4191.8,-3330.6,-1161.1,-4246,-7477.1,-3966.7,51.638,599.52,10.191,48.559,805.17,810.22,26.902,-111.01,-824.65,-3248.1,-3399.3,-1288.4,-1720.6,-3791.6,-5914.2,-6366.5,-5622.3,-6050.1,-7010.1,-6083.9,-3328.6,-1680.9,-717.69,-293.46,-1756.7,-2759.6,-2884.3,-2766.1,-1964.7,59.551,192.44,-1753.1,-1745.7,-937.86,-2529.8,-4361.6,-5291.9,-4338.3,-2857.8,-3171,-3895.2,-3246.6,-2874.8,-3634.8,-3523.3,-2668.3,-2020.6,-1774.9,-2533.9,-4608.4,-6330.8,-5877.5,-4239.7,-3359.6,-2731.9,-2768.6,-2521.7,-2218.1,-3170.9,-5102.4,-7371.2,-9205.4,-9518.4,-6353.4,-464.91,2148.3,1293.9,343.75,-745.21,-1686.6,-1789.4,-908.46,164.8,-86.983,-692.14,-1451,-2454.9,-2020,-1187.2,-1530.3,-1385.3,-1602.5,-2503.3,-3754.6,-4125.9,-2122.1,-182.45,-208.04,-555.4,-530.69,-583.05,-982.74,-457.98,721.89,695.01,25.74,-1501.5,-3714.2,-3500.5,-2359.6,-1444,-467.99,25.696,177.4,-58.514,-803.68,-1573.4,-1389.1,-524.2,-68.843,-2.7766,-782.07,-3155.4,-4951.1,-3300.6,379.04,2291.9,3016.7,3130,3876.6,3689.6,1792.2,444.68,273.86,152.27,-1703.9,-3179.7,-3600.1,-1211.1,1444.1,1840.6,234.95,-260.89,1236.7,1699.2,835.5,458.28,897.9,1081.8,729.27,1270.9,2345.7,2960.3,1646,-293.06,-1511.6,-1090.8,691.58,1861.2,1243.1,-845.15,-2234.9,-3495.6,-5595.5,-6644.6,-4022.3,-717.31,48.993,-446.83,-375.27,-543.43,-474.29,515.73,1362.5,1172.7,-361.24,-2563.7,-3755,-3600,-3499.4,-3131.5,-1958.1,-1675.6,-1712,-451.08,2137.6,2043.6,1047.8,1037.3,1937.7,2239.4,1235.5,512.74,-537.63,-1680.7,-1881.9,-938.16,-212.43,-1326.8,-3163.8,-3577.1,-3000.9,-3127.6,-3470.2,-3257.8,-2664.9,-1820.2,-1009.2,-290.11,655.24,2219.1,2432.9,935.96,-431.7,-1350.2,-1451.5,-862.63,162.88,1097.5,1620.8,915.77,-591.95,-1085.4,-2723.1,-3930.6,-2212.1,-1707.8,-2652.4,-2510.4,-1366.3,-496.7,849.67,506.02,-1039.8,-2053.9,-2362.8,-2203.7,-1550.2,-1117.6,-1243.9,-1420.2,-1127.5,-1187,-1482.7,-2329.8,-2885.2,-2360.7,-912.59,-175.03,-1067,-1956.3,-2326,-2260.9,-2610.3,-1524.2,-30.551,-236.87,-575.09,-612.03,-490.88,-1249.9,-2941.8,-4021.6,-4119.7,-3466.7,-2994.3,-3817.6,-5511.1,-6602.5,-6686,-6363,-3737.2,-145.33,317.46,-1052.6,-2299.3,-3725,-2734.3,-648.79,-898.5,-1789.9,-3611.6,-1631.2,973.09,-321.12,-2552.2,-2413.6,-759.6,-197.78,-21.062,-505.25,-2054.3,-3021.2,-3371,-3210,-2710.5,-601.11,1862.9,2326.9,821.41,192.42,-129.18,-395.46,-639.14,-2683.9,-4602.8,-5415.9,-6486.9,-6024.8,-1763.8,885.57,412.2,-43.53,-266.09,-539.1,-1429.4,-3588.7,-4408.1,-2803.6,-1734.9,-755.69,15.954,-1073.1,-2476.4,-2655.9,-2161.1,-2620.6,-3992,-4692.2,-5808.9,-7438.9,-7700,-6864.4,-5000.4,-2482.2,-1344.9,1078.2,2321.5,349.79,-1203.1,-1114.4,-941.37,-960.47,-1096,-92.428,502.82,-1097.2,-3275.4,-3974.2,-3757.6,-2387.6,-600.91,2286,3442.8,1376.8,406.35,1369.1,1490.5,274.61,-999.38,223.24,1047.9,1037.3,1377.3,744.24,111.65,766.02,1287.6,694.64,1.3566,-46.393,-1250.3,-2789.2,-2517.1,-1382.7,-2185.6,-3188.6,-987.24,2162.8,3205,2313.2,2057.1,2181.2,2080.9,2021.6,694.67,-779.6,-881.14,-1462.7,-2860.4,-3741.2,-3065.1,-2095.7,-484.49,126.22,-300.13,601.13,1282.7,895.84,-111.54,-1323,-1803.6,-1196.7,-608.89,-681.92,-870.17,-120.08,1515.4,1711.5,823.75,-43.733,-887.29,-653.07,-488.43,-142.06,276.39,-277.3,-1831,-5115.2,-7389,-6158.5,-3629,-1346.5,-619.61,-925.45,-1272.7,-801.73,410.6,782.17,597.1,686.27,1089.4,682.05,-405.03,-1904.5,-2571.3,-2097.5,-2166.5,-2254.6,-1400.9,-775.79,-542.62,-697.62,-1548.1,-2025.6,-1996.3,-2393.7,-3064.2,-2722.3,-2280.9,-3481.1,-4194.2,-2787.3,-347.17,648.15,-17.551,-1498.8,-2169.4,-1854.8,-1425.9,-1701.7,-2505,-3465.6,-4017.3,-2918.9,-1785.6,705.77,3741,3516.8,1036.3,-1043.4,-2694.4,-3543.1,-2984.3,-2126.6,-1585.5,-386.24,772.82,1203.5,-80.747,-1490.3,-1409.7,-429.84,311.06,695.63,877.11,1305.1,1309.7,492.25,-414.8,-558.25,-884.68,-2709,-4478.1,-4015.8,-2989.8,-2640.8,-3053.9,-3193,-1902.2,-615.97,-1176.1,-2196.9,-2371.7,-2276.3,-1749.4,-1717.3,-2828.7,-3451.7,-3189.6,-3047.6,-4088.4,-4047.9,-2720.8,-2547.3,-3317.7,-3771.8,-3078.9,-1876.3,-1276.4,-1700.1,-2799.8,-2768.2,-2572.6,-2733.8,-3426.7,-3529.1,-2096,-1115.5,-235.54,665.59,1393.1,1365.3,-718.17,-4823.8,-6156.9,-5222.6,-6905.4,-9136.3,-6145.2,963.19,5264.8,3907.3,41.799,-2683.9,-2673.8,-1763.2,-2080.3,-2651.6,-3192.9,-3446.7,-2871.8,-2255.8,-1492.4,-630.69,-507.56,-796.15,-1081.7,-2013.3,-1437,213.08,85.785,-778.43,-1504.9,-2732.5,-3985,-4747.5,-4280.2,-2171.1,-1209,-774.96,-580.25,-272.64,-1113.6,-1584.4,-1154,-278.42,287.24,868.35,1187.8,768.7,623.62,1039.2,1704.5,1281.7,654.09,1126.1,1013.5,85.239,-525.4,-273.22,-660.22,-1903.7,-1296.1,-431.01,-1516.4,-1852.6,-1707.7,-1850,-1495.7,-1179.6,-915.36,-938.68,-1459.2,-658,300.72,20.47,-136.02,126.3,272.78,574.22,31.821,-117.21,115.54,-556.52,-891.3,-630.98,-1225.8,-2109,-1402.9,-619.45,-666.34,-482.28,-471.48,-961.19,-1772.4,-1093.9,445.79,779.65,912.43,585.19,438.1,529.55,-302.87,-1505.4,-1250.5,-32.305,1764.3,4024.4,3858.7,1745,-90.057,-1671.8,-4260.9,-5415.6,-4772.3,-3338.8,-1581.8,266.52,1594.6,1064.6,-645.9,-1203,-1204.6,-1084.1,-871.74,-438.83,-267.01,-151.19,-170.27,-258.18,-635.73,-1826,-3154.9,-4642.8,-5696.4,-5445.1,-2957.3,-1130.5,61.703,468.12,-855.78,-2000.6,-2440.9,-2662.1,-3513.9,-3409.9,-3045.3,-4308.3,-5003.8,-4013.4,-2023.5,-3175.3,-3294.9,-3009.3,-2573.4,-2496.6,-2960.9,-3374.5,-3493,-3169.3,-2911.7,-2964.1,-2942.2,-2277.4,-1765,-1917.7,-2358,-2861.6,-3027.5,-2904.2,-2526.1,-2171.7,-2621.8,-3160.3,-3314.6,-2867.9,-2141.5,-1689.1,-1375.4,-1078.3,-914.61,-855.27,-1332.7,-2132.4,-2337.5,-2033,-1637.3,-1062.1,-1106.2,-1664.2,-2082,-2075.7,-1886.1,-1500.6,-1192,-723.54,-85.636,311.46,256.41,-162.3,-801.35,-841.34,-372.19,380.22,512.8,-90.991,-797.39,-1291.5,-1232,-755.22,-366.56,-202.7,225.15,1084.4,1836.3,1562.1,1230.7,1282.2,1293.5,1110.8,938.26,776.71,389.44,-32.712,-61.297,657.75,1673.5,2076.2,2049.8,1904.5,1664.5,1195.5,316.74,-152.13,-286.97,-5.2583,437.46,914.34,1374.2,1492.7,1703.6,2046.5,2310.3,2681.4,3060,2831.1,2409,2008.1,1286.7,686.8,640.09,959.75,1217.1,1074.8,802.15,274.62,15.692,410.18,1066.5,2071.5,3014.7,3679.5,3399.2,2441.1,1675.4,757.79,346.81,274.15,640.26,1225.1,1377.9,1008.9,539.58,314.3,29.734,125.49,543.15,949.05,1282,935.1,-115.43,-1284.1,-1950.1,-1909.5,-1740.3,-1481.2,-1383.7,-1381.9,-1515.2,-1601.7,-1957.4,-2184.1,-1982.2,-1385,-713.04,-641.67,-1251.8,-1941.8,-2665.2,-2847.8,-2336,-1415.1,-1172.7,-1437.8,-1799.1,-1723.5,-1840.2,-2069.3,-2273.7,-2068.9,-1554.2,-1209.8,-1565.6,-2415.4,-3713,-4704.1,-4301.9,-3270.3,-2729.2,-2804.6,-3295.3,-3879.5,-3472.5,-3194.1,-3696.1,-4039.8,-3733.5,-3190.9,-3079.6,-3569.2,-5134.6,-6987.1,-7228,-6052.9,-4683.6,-4024.8,-4165.2,-4700.3,-4852.7,-4633.3,-4055.2,-3689.3,-3485.7,-3219.2,-2951.4,-2992.8,-3965.7,-5715.4,-7119.9,-7450.1,-6175.4,-4803,-4685.2,-5123.4,-5165.6,-4695.9,-4441.8,-4417.1,-4547.5,-4438.1,-4260.1,-3622.5,-3508,-4464.8,-5790.1,-5965.2,-5043.7,-3764.6,-3230.1,-3656.9,-4422.1,-4735.4,-4394.5,-3741.8,-3614.5,-3717.9,-3814.7,-3456.6,-3090.8,-3612.9,-5008.4,-5872.7,-5711,-4339.3,-3019.3,-2910,-3183,-2965.9,-2431.8,-1978.5,-1475.1,-1237.8,-1337.7,-1430.6,-1408.6,-1398.1,-2067.7,-3184.8,-3710,-2995.1,-1213.3,30.546,-206.97,-1078.4,-1529.2,-1092.6,-440.14,40.852,117.3,-21.416,150.44,857.66,717.58,-451.33,-1685.1,-1714.6,-491.84,919.65,1801.2,1328.9,599.94,681.93,1540.3,2535.9,2809.1,2385.2,2056.8,2168.6,2204,1927.1,555.93,-481.29,157.35,2188,3956.3,4378.1,3617.5,2909.2,2914.4,3898.7,4600.6,4146.1,3369.8,3051.4,2618.7,2273.1,1572.9,761.44,1114.8,2353.5,3978.1,4913.5,4711.3,3967.9,3691.2,3676.1,4432.6,4688.4,3922.1,3001.4,2504.8,2047.9,1695.6,1846.1,2120.3,2699.1,3782.3,4812.5,4813.9,3938,2823.3,2322.2,3073.6,3990.5,3998.8,3297.5,2285.1,1638,1281.3,1106.1,1112,1583.4,2470.1,3577,4480.2,4036,2815.5,1619.7,1424.7,2061.1,2448.8,2167.5,1046.5,37.757,-628.69,-1097.6,-1035.7,-299.33,562.66,-76.999,-1471.5,-2416.6,-2769.4,-2725.2,-1879.4,-578.32,364.85,935.79,859.52,130.04,-749.41,-1364.9,-1963.4,-1767.4,-1008,-115.18,437.11,633.5,321.12,-1208,-3340.8,-4665.5,-4563.1,-3912.7,-3734.2,-4009.9,-4865,-5704.2,-5768.7,-5096.1,-3491.9,-1458.8,-459.57,-802.21,-1966.5,-3084.8,-3855.3,-4212,-4047.9,-3749.1,-3806.4,-4747.1,-7472.4,-10394,-11852,-11152,-8680,-5562.4,-3505,-3586.9,-4592.7,-5613.3,-6221.1,-5699.8,-5512.8,-6331.5,-6737.1,-6935.1,-7166,-7812.9,-9057.7,-9922.9,-9323.1,-6924.4,-4407,-2716.1,-2810.8,-4559.1,-6187.6,-6707,-6553.3,-7032.4,-8639.2,-9147,-8631.2,-9389.9,-11393,-13840,-15484,-14216,-10448,-6237.3,-3590.3,-3144.5,-5226.4,-8109.4,-8012.6,-4836.9,-2335.7,-2173.4,-3015.6,-5284.3,-11087,-15221,-11411,-4262.3,124.05,1355.9,788.74,-3777.1,-11158,-15620,-13754,-9678.9,-8112.4,-8985.3,-10860,-11183,-10701,-10880,-11356,-11214,-11465,-10674,-5045.5,322.71,-2296.6,-9123.9,-12270,-12252,-11131,-10203,-9202.2,-3634.8,773.67,-211.62,-507.05,3055.2,4365.6,3802.7,4651.4,5067.9,6671.6,6483.5,4625.1,10185,12996,4851.6,-6201.6,-13100,-13651,-8175,2625.6,16470,17605,4250,-2819.8,2766.8,13554,19042,18008,7890.5,-2386.1,-3781.3,579.61,1881.4,2750.6,8708,11787,6398,-4357.1,-16733,-20577,-3109.2,22338,26399,4610,-19331,-28436,-18556,-3055.6,12781,13125,13573,23930,35349,49715,58333,60039,55950,44762,25390,2677.6,-5735.6,-2693.2,7042.2,16279,22727,30357,39909,25296,-24847,-60836,-28323,12867,16742,19133,12401,-2403.5,8025.1,23092,33270,43539,55996,59229,61218,60742,64809,78373,77847,61724,28874,-174.54,16143,44470,55751,61442,68703,82315,95682,1.0039e+05,83211,59776,53227,67756,74133,67008,62913,70187,66961,32296,3211.4,-6084.9,-15800,-25670,-46636,-97152,-1.5555e+05,-1.6854e+05,-1.4016e+05,-1.2548e+05,-1.2017e+05,-1.1798e+05,-1.2087e+05,-1.2428e+05,-1.3629e+05,-1.5485e+05,-1.7137e+05,-1.8285e+05,-1.7808e+05,-1.5969e+05,-1.4222e+05,-1.2477e+05,-1.097e+05,-1.1103e+05,-1.1016e+05,-1.0395e+05,-96069,-1.0612e+05,-1.2369e+05,-1.1157e+05,-97135,-85835,-73784,-74436,-54489,-23968,-16047,-4845.1,8463.7,3399.2,-8750.1,-13483,-32379,-46143,-41134,-31379,-21601,-9607.2,4832.6,15240,12167,9619.2,2923.7,-10780,-14185,3350.3,27416,45134,40517,34958,40181,40618,29372,33113,48609,55088,47809,43311,60888,69342,53387,46654,56743,53502,29223,9843.1,9359.7,31680,51793,57724,56556,59053,70100,75435,63455,49172,48768,47641,40872,31351,23208,37456,58980,68282,60252,54227,55925,57151,59561,61898,57899,49734,34911,27029,29032,25065,32847,48693,49655,49440,62226,71342,61905,43514,27576,18606,12713,-1389.4,-4255.2,13110,8830.9,-974.85,-2046.1,8235.2,9689.2,-2169.1,-16113,-19350,-20416,-20993,-20987,-21087,-27806,-37925,-32406,-13873,-2140.2,-692.36,-5745,-13430,-12030,1973.5,11607,9216.8,-8124.2,-20770,-23451,-25476,-22680,-21834,-28062,-21146,-17447,-29266,-36437,-29525,-14750,-8888.1,-14187,-23192,-30250,-32040,-27899,-23368,-14902,-9741.2,-21191,-37600,-27431,-644.06,2492.3,-5926.2,-9045,-30233,-49960,-38152,-18994,-23292,-29447,-28392,-26172,-26945,-35058,-34929,-18281,-9725.2,-12591,-19221,-25666,-18443,1987.2,13558,6758.4,-712.95,-11577,-38257,-54536,-49239,-26297,-16627,-22837,-29440,-33113,-32347,-27130,-19700,-16255,-21648,-29519,-30502,-26480,-20735,-15869,-13142,-13550,-11114,694.84,1069.4,-16298,-18421,-7412.5,-418.01,-4070.1,-12272,-16063,-17418,-19028,-15131,-2932.2,6015.1,3138,-3095.3,-3267.2,-565.4,6079.5,12539,12723,-1971.7,-15537,-10546,959.44,8955.4,10077,10299,10044,9792.1,-98.697,-19632,-32947,-31392,-11769,12384,14816,5836.3,4074.3,6777.8,4977.5,-5643.6,-12436,-5793.5,6894.5,13609,14997,15767,17772,21517,26946,29338,23761,14861,9849.1,8902.4,14114,23317,26588,22807,15114,17413,25070,25825,25198,27681,26972,22623,21176,16044,9097.1,14969,18374,17582,19025,10274,2186,6697.2,17350,21744,20390,20277,25536,30548,31045,30753,31979,32562,29927,25988,24286,23611,21384,23771,33556,36164,24340,9029.7,-3367.1,5359.1,25132,23369,4340.7,-13976,-23958,-17422,-11087,-1413.1,5301.6,3021.8,625.24,-0.26975,-528.29,2143.3,7965.9,13726,14430,13029,9734.4,3654.2,-2040.5,-5588.3,-4196.7,-3978,-2428.6,-1946.4,1083.2,7180.1,9728.9,3884.4,-4525.2,-6043.4,-7891.3,-12969,-9285.9,-1746.5,7241.8,12205,5427.8,-926.54,-877.25,1629.8,-270.17,-5087.9,-11612,-14051,-12483,-11716,-10331,-15196,-18763,-22695,-24012,-19325,-17122,-23640,-30149,-24525,-15222,-15481,-16252,-12177,-6920,-2077.2,85.291,-429.55,-2739.6,-9499.2,-23016,-37715,-36812,-26745,-22944,-27398,-33183,-37724,-33945,-28632,-29230,-33277,-33567,-24205,-13204,-12698,-16388,-15576,-9285.6,-2442,-1359.9,-3935.4,-10884,-19475,-26008,-30641,-47900,-67169,-45267,-15307,-17139,-34661,-41549,-43818,-44898,-30552,-18538,-23048,-29948,-35578,-41429,-38859,-31947,-23909,-19504,-22117,-19578,-14891,-15459,-17122,-18412,-17680,-15311,-14164,-12358,-9373.7,-5440.7,-1388.3,1137.5,2798.3,3914,7196.8,6809.6,-1437,-655.21,3425.2,8833.7,12179,11442,12904,21385,31631,34363,32203,27099,20859,15262,10646,8805.1,7338.4,8302.6,17001,20494,22870,26244,28115,26840,27086,35365,46502,49348,47095,46002,41345,34142,34564,44332,49006,45800,43658,43587,43462,43309,42219,40018,38543,39503,39988,38436,36354,37223,41742,44496,41687,35580,28315,23322,21310,19191,19677,23286,23637,17674,7578,271.3,-104.46,1740.4,2089.4,232.68,-3163.1,-6199.9,-6561.1,-5887.3,-5770.3,-8040,-11500,-11616,-8917.9,-8813.8,-10710,-10518,-8450.2,-6258.3,-4843.4,-4888.7,-6500.5,-8414.9,-9997.8,-11241,-11983,-12129,-10967,-10820,-13057,-14742,-13271,-10871,-9910.8,-8555.3,-7190.8,-5473.5,-3166.4,-4164,-6116.7,-7613.2,-8496.3,-8571.1,-8581.6,-9143.6,-11407,-13610,-13265,-12071,-13034,-13239,-12792,-14399,-18628,-22395,-23534,-23567,-26889,-34685,-38664,-30416,-19646,-20722,-25478,-27263,-27305,-26927,-25474,-23214,-22135,-22773,-26226,-28104,-27492,-28154,-29167,-29696,-30093,-31005,-33494,-34791,-35281,-31828,-22230,-19844,-21745,-24349,-27945,-30799,-31151,-29432,-26361,-22578,-18793,-16123,-15644,-16546,-18363,-20292,-20473,-18437,-16028,-14387,-13660,-12596,-11509,-11028,-10924,-10380,-9041.8,-7740.2,-7371.1,-6667,-5077.2,-2392.3,90.422,1644.5,3104.4,6197.3,9564.5,10711,9762.4,8547,9235.8,11755,15509,17921,17744,16845,16078,14820,13596,14422,16397,19199,22447,25091,26880,27728,27783,27691,28826,30358,30832,30975,30757,29175,27106,25768,24612,23855,24373,25400,25482,24391,23246,22651,22660,23176,23365,22688,21411,20301,19345,18605,18392,17915,17425,17218,16432,15069,13284,11920,11756,12275,12407,12071,10924,8902.8,6993.9,5726.7,4818.6,4000.8,3056.3,2323.6,2051,2138,1600.1,155.62,-997.36,-1178.9,-698.32,-166.75,-578.24,-1805.4,-3214.8,-4110.7,-4224.3,-4439.1,-5111.5,-5682.7,-5999,-6335.5,-6492.6,-7123.1,-8085.7,-8336.1,-7855.3,-7142.2,-6674.3,-7316.3,-8616.1,-9468.7,-9311.9,-9050.6,-8861,-9201,-9869.4,-10312,-9915.5,-9645.8,-9800,-9915.1,-9250.1,-7843.7,-6737.7,-6787.7,-8047.3,-9510.6,-10359,-10102,-9622.6,-9186.8,-9499.4,-10237,-10739,-10735,-10619,-11084,-11805,-11955,-11132,-10313,-10372,-11248,-11962,-11878,-11335,-11132,-11492,-12521,-13580,-13657,-13275,-13102,-13048,-12416,-11386,-10382,-10128,-10881,-11918,-12213,-11520,-10013,-8850.9,-8665.9,-9176.7,-9830.4,-9897.4,-9333,-8581.2,-7777.4,-7454.8,-7117.1,-6621.8,-6908,-7554.6,-7908.3,-7258.9,-5973.2,-5011.3,-4975.4,-5749.3,-6435.8,-6484.7,-6388.8,-6098.2,-5774.1,-5460.1,-5045.1,-3948.6,-3487.2,-3738.7,-4234.8,-4206.8,-3844.3,-3139.5,-2716.2,-3059.7,-3745.9,-4215.3,-4395.9,-3868.1,-3063.7,-2662.7,-2114.4,-1296.9,-939.6,-1215,-1614.9,-1874.4,-2805.8,-2707.1,-2219.4,-2260.6,-2425,-2654.2,-2892,-2610.2,-2264.5,-2511.3,-2901.6,-3246.8,-3315.4,-3088.2,-3211,-3430.1,-3426,-3225,-2855.3,-2189.3,-1826.4,-2120.6,-2373.5,-2300.5,-2151.7,-2308,-2300.5,-2191.8,-2137.2,-2054.9,-1756.5,-1737.3,-1784.8,-1876.2,-1809,-1249.3,-703.31,-948.24,-1145,-700.44,-34.753,327.79,356.25,328.43,472.34,663.04,371.41,226.08,149.55,-79.43,-32.743,196.14,345.53,198.41,-130.4,-338.73,-488.64,-485.88,-419.29,-295.95,-289.42,-143,152.07,457.25,477.81,554.58,576.74,525.27,519.55,766.79,943.13,652.5,713.11,690.81,1004.4,946.95,487.48,361.86,362.58,772.59,1043.2,900.35,812.3,932.97,1143.2,1460.3,1535,1140.4,848.42,1112.5,1623.7,1628.7,1234,998.34,1046.2,1172.6,1017.2,479.33,-146.68,-33.61,510.74,811.11,995.74,660.76,361.78,731.92,1272.9,1593.7,1710.6,1468.8,1090.2,1016.3,813,596.99,208.9,-283.52,-324.97,107.51,461.74,587.52,285.01,322.19,150.73,127.41,385.45,134.28,-78.825,101.02,-68.716,-107.59,-128.12,-569.05,-858.37,-768.23,-623.79,-276.9,-493.86,-1164,-1630.4,-1631.4,-1288.6,-1033.8,-1275.3,-1492.9,-1523.1,-1422.9,-1482.5,-1536.3,-1738.8,-2130.7,-2086.2,-1915.4,-2222.7,-2711.7,-2870.6,-2759.7,-2342.9,-2219.2,-2293.5,-2331.5,-2266.3,-2206.4,-2223.8,-2306,-2675.5,-2976.4,-2874.7,-2595.7,-2529.3,-2840,-3511.1,-3897.3,-3689,-3294.7,-3160.9,-3320,-3547.5,-3650.4,-3587,-3362.8,-3495.1,-3487.3,-3509.9,-3432.3,-3597.8,-3913.1,-4442.2,-4725.9,-4917.4,-4757.4,-4683.5,-4650.2,-4552.9,-4378,-4128.5,-4044.2,-4112.2,-3845.6,-3902,-4015.8,-3745.1,-3568.9,-3758.8,-3892,-4124.4,-3838.1,-3568.8,-3589.1,-3933.8,-4180.8,-4133,-4131.4,-4148.2,-4321,-4200.9,-3852.5,-3519,-3550.8,-3543.4,-3689,-4043.9,-4196.5,-3836.6,-3619.8,-3730.8,-3926.5,-4208.6,-4136.4,-3952.1,-4099.7,-4212,-4048.3,-3675.8,-3211.3,-2958.9,-2934.1,-3288.6,-3734.3,-3760.4,-3594.2,-3344.1,-3288.3,-3169.6,-3099.6,-2869.4,-2641.9,-2486.8,-2654.8,-2496.8,-1959.5,-1778.8,-1590.7,-1787.3,-2023.8,-2009.1,-1693.6,-1360.7,-1455.9,-1604.6,-1725.5,-1431.2,-1162.9,-1103.6,-946.25,-383.78,234.88,726.82,1046.7,318.67,-185.21,-174.36,232.37,768.92,1010.2,1340.9,1407,1275.3,1325.7,1505.9,1782.5,2069.2,2686.5,3277.1,3936.4,4112.9,3467.1,3123.2,3029.1,3232.5,3441.7,3392.3,3043.1,2916.1,2820.2,2612.6,2434.1,2139.8,2153.1,2751.3,3773.9,4361.5,4355.6,3731.6,3502,4048.4,4587.9,4378.9,3982.7,4079.5,4189.1,3827.3,3369.7,3384.5,3784,4085.9,4823.8,5524.4,5565.2,5301.8,5468.2,6368.2,7128.9,7558.7,6707.4,4613.4,2436.6,1217,1007.8,1677.5,2664.4,4932.9,5919.2,5655.4,5597.5,4809.8,3535.4,2681.6,2724.1,3188.4,3475,2950.2,2277.7,1748.7,1612.9,1282.1,970.3,763.63,492.63,509.16,1494.1,2650.3,2432.6,430.92,-735.12,262.83,1264.8,1297.7,1230.6,1720.4,3519.3,4482.7,2100.5,-1348.5,-3720.3,-4059.7,-2640.5,-1858,-3485.9,-4399.4,-4004.8,-1561.3,717.25,-383.49,-1844.7,-3709.9,-4387.9,-2785.7,-1394.3,-1487.9,-3636.3,-4964.2,-3769.7,-3733.9,-7029.2,-9615.7,-12135,-14858,-18175,-18634,-18059,-16996,-13212,-12351,-13528,-13993,-12672,-12472,-12918,-12661,-11856,-11185,-10210,-10520,-11369,-12806,-14521,-18317,-21730,-21688,-21740,-23850,-28737,-31789,-29302,-24013,-25935,-29784,-28200,-26732,-22090,-11846,-7374.5,-6669.5,-6837,-6287.8,-3545.8,405.76,5366.4,15403,16512,-2544.1,-27871,-44689,-52468,-48792,-34276,-20908,-14026,-16014,-24917,-33470,-36533,-29920,-13651,-933.32,1823.2,8865.3,26484,47162,45496,28040,21611,26195,19719,11238,17767,29345,31837,28264,29584,31444,29690,25137,25306,27708,26722,27675,27372,25759,26854,30122,32967,34234,31308,25276,20022,14643,8890,7456,8187.9,6487.5,8474.8,10794,11941,24721,42316,38798,23055,17606,17290,18000,21657,22680,16770,9968.8,3914.9,-3346.5,-5502.4,1418.6,12882,16230,14933,8886.5,-2083.1,-4820.7,5502.2,14754,13658,8506.5,1405.6,-2995,-2338.8,-4120.1,-7053.9,-2158,-1373.6,-4783.4,-7434.8,-11453,-15452,-18233,-20229,-23561,-22843,-19680,-20988,-26304,-32643,-32363,-27628,-21999,-10784,1710.4,877.8,-3708.4,-7899.4,-11321,-14627,-17765,-21375,-25789,-25265,-18183,-12640,-12708,-13118,-12453,-14470,-26316,-34796,-29506,-16504,-12282,-20665,-25399,-19275,-4212.8,2264.4,-6010.8,-14058,-11416,-7165.9,-10127,-11720,-6642.5,-3931.7,-7286.7,-9857.9,-13420,-16780,-16167,-12454,-9061.2,-6702.3,-3764.4,-738.28,-1263.1,-8290.3,-8647.8,-72.974,1931.6,-4860.6,-6647.4,-6560.5,-8457,-9499,-7099.1,-4892.9,-7873.2,-10087,-6750.8,-1191.9,2889.3,3535.4,-3081,-8057.7,-6631,784.61,4137.5,956.29,-1941.8,-1709.4,3911.3,5625.1,3198.1,3618.9,-437.1,-2957.8,2263.6,7728.7,11966,13645,13998,13350,5601,-2314.7,710.21,7167,10843,9258.2,5461.7,4725.5,5432,7221.9,5632.3,4171.2,5647.7,8670.7,8963.4,6409.9,5059.6,7945.7,12032,14364,11219,6313.4,3309.4,2526.8,2689.9,2238.9,855.78,2372.9,9108.8,14881,14247,11445,8393.2,5563,4302.3,-2190.1,-7826.2,-8525.5,-7888,209.31,7099.7,9752.1,13799,9358.2,5504.7,4891.6,4008.6,3668.2,4989,2190.1,-497.92,-12.727,-1174.9,-4573.6,-3834.5,2150.1,7055.7,10243,12051,7265.3,338.94,-1299.2,-2683.4,-4166.2,-4203,-2852,-2083.2,-2984.9,-147.58,4947.6,8599.7,8653.9,4724.2,-243.06,-1260.9,-1653,-2127.6,-2871.4,-3183.4,-1371.8,74.374,-2479.8,-5652.4,-6009.7,-5995.5,-7994.2,-9069.4,-8386.6,-5615.1,-125.82,3066.9,1039,-4025.7,-7872,-7830.9,-6841.3,-8431.1,-10629,-10511,-6755.2,-1906.7,-350.2,1839.1,2693.8,-2154.4,-4939.4,-3198,-3168.3,-5602.2,-11839,-17777,-20063,-19459,-13297,658.62,6320,-3700.6,-7068.6,-1513.9,5709,10274,10131,990.34,-7136.6,-5516.3,-1356.2,-530.09,-1231.1,90.985,1671.4,1861.8,-859.24,-2710.1,-7194.1,-13940,-9448.1,-4725.1,-6386.7,-8257,-9450.6,-10175,-10138,-9028.9,-6441.2,-5234.6,-5655.9,-5723.4,-4825.5,-2054.6,3989,8167.4,4166.5,-2641.2,-3639.7,-2999.2,-4498.9,-5852.1,-6208.4,-6464.8,-5781.2,-5342.2,-4954.4,-5566.8,-7950.8,-9881.9,-8922.3,-6135.9,-4017.2,-2315.8,-1606,-1028.3,467.01,2713.2,6214.4,4928.1,-752.93,-3026.6,-2104.7,-2002,-4547.9,-6432.9,-7488.2,-7009.1,-2257.2,1887,791.56,-3255.7,-7863.3,-7971,-1933.9,3152.1,4067,1592,3586.3,7226.9,7208.3,5456.2,3622,1538.1,258.77,-390.01,-715.5,488.62,1206.2,1435.1,1039.7,1062.1,2096.3,2097.9,1324.9,765.04,1246.4,2526.5,3248.2,4225.4,4075.7,3109.6,3496.6,-612.42,-12682,-13820,-7608.9,-2243.3,2505.2,5715.6,8313.7,8207.1,1933.3,-2619.5,-1928.6,-638.63,-799.69,-288.53,1079.4,1978.5,3391.8,4170.5,3451.7,2382.9,1360.6,231.44,-807.33,-2173.9,-4236.2,-4489.4,-3087.1,-2754.7,-1347.9,1784.2,4258.9,3599.7,1750.6,-330.08,-2588.9,-4587,-6215.2,-7487.2,-6827.6,-5462.3,-2777.7,2637.4,8211.7,10921,8117.8,4102,3637.6,2581.9,-88.897,-2164.6,-2043.1,-1166.4,-2688.2,-4338.9,-3784.8,-2565.5,-695.08,4940.8,8877.6,8121.6,5477.1,-362.88,-2308,-783.2,354.18,-1170.1,-1933.3,-329.33,1096.3,958.85,-132.21,-817.85,-876.16,-867.03,-401.55,-286.54,-997.63,-1770.2,-1479.8,-1063.9,-2043.8,-7218.6,-10562,-5049,-753.7,1241.1,1728.6,1197.5,1047.6,-104.25,-1844.5,-2265.4,-2812.5,-4316,-6036,-7583,-6557.1,-3858.7,-2928.4,-2200.9,-1980.2,-1893.2,-780.36,-1177.5,-2571.2,-2375.5,-2058.4,-2419.5,-3565,-4629,-4034.8,-3500.8,-3910.3,-4976.3,-5404.1,-4273.3,-1714.2,1165.9,4140.7,1839.4,-4728.4,-6204.5,-4984.7,-4927.3,-5583.9,-5974.1,-4345.6,-2483.6,-2533.7,-3481.4,-2702.5,-1317.7,-226.67,305.76,128.7,-383.5,-737.5,-1339.6,-2023.7,-3107.7,-3304.5,-3373.1,-4843.8,-6199.7,-4331.4,-3344.6,-4120.5,-3374.6,-441.51,1497,-833.65,-3558.2,-5783.2,-7524.2,-6310.5,-4227.7,-3136.8,-922.48,2091.1,2999.9,2156.9,241.53,-1832.1,-2606.2,-3093.1,-4220,-4822.7,-2671.6,1582.8,5530.5,5118.4,-353.85,-3467.7,-3465.2,-2890.5,-1979.4,-802.58,480.5,546.99,208.72,-174.01,-1963.2,-497.12,2767,3231.2,1781.1,-132.89,-1146.5,-1831.6,-3399,-4758.4,-3739.1,-2709.8,-3611.8,-3495,-2566.4,-1446.1,-221.84,350,259.75,-107,-469.46,93.122,-183.09,-335.26,-530.67,-1820.3,-2213.6,-2127,-3202.6,-4463.9,-4938.6,-3927.9,-3496.9,-2963,-1021.9,246.68,-135.06,-1534.1,-5751.2,-1431.6,3994.5,239.02,-1545.6,539.76,4170.1,4913.9,3601.8,1350.8,-1043.3,-2337.7,-1461.3,-738.65,-2138.1,-3949.8,-3715.7,-1749.2,-529.92,-376.44,1613.2,5110.9,3256.7,-892.69,-2523,-2101.6,-950.31,93.581,1394.6,2555.3,2896.5,2441.2,1686.3,322.67,-1244.6,-1855.8,-2249.1,-2417.1,-3143.8,-4641.2,-3585.9,218.29,2604.9,2431.6,1784.1,120.68,-2329.9,-2840.9,-1925.2,-1868.2,-1777.7,-854.73,1106.4,2752.2,2043,-355.65,-2636.1,-1507.4,1238.4,2292.3,4849.9,6174.9,728.94,-2144.1,-1006.4,-909.86,-1545.4,-1758.4,-1342.4,-685.74,-129.87,93.502,-134.13,-185.44,231.07,818.23,1518.4,2664.9,3079.7,2919.3,-466.89,-7708.6,-7085.6,-4582.6,-4591.7,-5021.5,-4544.5,-3032.3,-2066.9,-2103.9,-2149.9,-2346.4,-3891.1,-3379.8,-1827.7,-960.6,-1045,-1872.4,-1276.3,-151.34,-404.53,-728.71,-866.39,-1141.7,-2648.4,-3648.7,-3070.2,-2538.1,-3326,-4676.9,-4998.8,-5008.3,-4128.1,-3515.5,-4924.9,-5657.1,-3261.8,635.14,5030.7,7062.5,937.49,-4708.1,-5534.9,-4807.8,-4292.5,-2290.5,914.43,-357.59,-2019.4,-2188.3,486.4,3308.8,2539.3,85.339,-1736,-1443.9,-1061.1,-1500.5,-2187.7,-3632.3,-3978,-3072.5,-2548.6,-3085.8,-3478.3,-2962.6,-3180,-3672.7,-3494.5,-2132.5,-588.05,-597.07,-1440.9,-2797.7,-3768.7,-3323.2,-3041.7,-3725.2,-3468.1,-1220.9,-1654.3,-2894,-3236.3,-946.55,2576.6,3825,981.27,-3993.7,-7693.3,-8158.6,-5123.2,-1059.5,220.91,-787.79,-1247.6,-1382.7,-2098.8,-3409.1,-4234.4,-4446.7,-2686.8,-813,-1653.1,-2608.9,-3012.1,-2606.6,-1069.6,2834.6,4467.9,2223.5,450.83,-563.37,-460.23,543.06,897.88,113.37,-771.29,-864.09,-1067.2,-1945.4,-2283.5,-2440.4,-2935,-3011.8,-2458.4,-580.25,1089.7,518.24,-461.12,-1234.4,-1816.1,-2204.3,-2330.1,-3142,-3852.9,-3250.4,-1849.1,-97.013,2347.3,3897.7,2609.3,1106.5,-336.05,-1097.7,-1631.7,-2963.4,-3922.1,-3022.7,-1554.7,-1523.2,-1164.1,259.58,2760.4,6940.9,6890.9,-440.18,-3464.1,-2385.1,-2592,-2983.4,-1481.5,1076.8,1476.5,743.33,741.64,1872.3,3041.3,1336.7,-1344.2,-2575.5,-2919.2,-2353,323.75,2608.6,348.81,-1005.9,1065.9,1246.6,-1428.6,-2599.5,-1733.4,-652.74,-24.365,-639.29,-1683,-1573.8,-1249,-1225.7,-1237.6,-1276.6,-1262.5,-1395.7,-978.56,-307.77,-289.77,-634.57,-67.157,59.128,-595.39,-1594.9,-3096.8,-4505,-4796.6,-4116.1,-4358.3,-4416.6,-1552.7,2257.3,5187.6,4977.3,4216.7,3603.3,-117.89,-922.03,-1516.6,-2751.1,-2032.3,-679.68,-607.18,-1513.2,-1864.1,-2132.3,-4319,-8456,-4448.8,-742.39,-1194.6,-920.05,-267.69,68.513,-444.45,-1613.1,-2159.3,-2122.8,-2513.7,-3197,-3830.5,-3577.5,-2962.7,-2501.8,-1122.5,291.82,879.6,300.25,-1274.6,-2229.2,-2274.8,-3032.5,-3642.3,-4376,-4627.9,-4045.5,-4468.2,-2986.2,-194.43,2620.4,6328.7,8543.8,1566.6,-5019.6,-3840.6,-2519.6,-3951.8,-4754.5,-4299.3,-3032.2,-712.89,541.61,-1115.8,-620.36,-302.47,303.09,1308.5,2330.6,3617,4700.2,2631.8,-2400.6,-3531,-1962.3,-1793.2,-2554.8,-2692.8,-2441.4,-1990.9,-1621.6,-1495.9,-1205.6,-1050.8,-930.78,-466.91,-54.899,108.69,352.88,532.6,289.51,34.219,135.96,107.07,-260.64,-507.43,-674.68,-1184,-1769.4,-1233,299.35,1769.3,1960.5,-2153.1,-4596.8,-2748.5,-627.81,1017.7,1139.6,536.55,460.46,364.72,-906.29,-2097.2,-1811.2,-1421.5,-830.62,-504.27,-1.3113,412.98,477.13,850.6,602.44,-315.64,-1002.3,-1425.7,-2147.2,-2406.3,-2366.5,-1893.8,-1289.3,-1207.4,-2289,-4191.7,-5733.2,-6163.8,-5578.3,-4829.9,-3820.9,-2407.4,-1373,119.78,3263.4,4818.5,2739.7,462.68,-412.33,-486.11,-617.53,-981.72,-1179.5,-830.99,-508.13,-156.9,-212.69,-500.57,-821.64,-1374.1,-1726.2,-1866.3,-1759.5,-1444,-1156.6,-751.96,-431.84,-891.24,-2265.3,-3959.9,-3988.2,-2034.5,-118.83,1011.3,3155.8,2125.4,-4036.9,-5287.7,-3479.5,-3093.3,-3022.4,-2747.6,-2554.9,-2306.3,-2473.5,-3149.4,-3774,-3781.3,-3072.5,-2500.1,-2286.5,-2409.4,-2366.7,-3055.9,-3904.3,-4933.1,-5616.1,-5235.4,-4288.9,-4414.8,-4411.8,-2418.8,486.88,2760.9,3016.5,1338.5,-1739.6,-2081.5,-1111.6,-512.23,60.669,-2705.2,-7593.7,-6947.1,-4787.7,-3533.5,-2808.2,-2455.9,-2452.9,-2550.8,-1931.3,-635.57,22.291,-11.015,-263.01,48.888,634.16,1223.2,353.39,-3710.4,-5609.3,-1943.5,2534,5248.5,4128.9,-2673.9,-9293.3,-10380,-9165.6,-7070.9,-5764.1,-5428.1,-5556.7,-5699.8,-3402.6,-982.58,-1462.2,-1554.8,-985.97,-528.61,-72.173,-1.8876,-424.26,-836.5,-2003.1,-4493,-4878.3,-4116.7,-4066,-4246.5,-4239.7,-3698.6,-2805.9,-2433.1,-1609.6,206.96,2417.1,4181.6,4626.5,3245.4,-1197.1,-1945.1,-248.58,630.91,2436,3280.2,553.37,-311.73,18.713,-768.75,-1248.1,-4015,-5216.5,-4038,-1892.8,-74.34,-363.76,-273.12,31.451,134.29,322.39,638.58,1827.8,3672.5,6618.2,10665,13407,14231,12853,7319.3,1967.8,3085.8,7211.5,8661.3,4220,-8380.4,-16686,-12756,-6361.9,-3009.7,-1364.4,2006.1,2677.6,1875.1,1439.9,1746,2092.9,1915.9,1216.1,635.49,1014.9,2613.5,3522.2,3398.2,2430.1,992.95,48.356,74.47,1023.3,1787,2436.7,3414,4146.3,4149.3,2796.9,1111.4,288.85,532.81,1400.5,1996.7,1468.5,119.04,-793.17,-418.5,794.02,1754.8,2239.8,1561.4,-179.52,-2768.3,-5884,-8249.2,-8680.6,-7281.5,-3978,551.43,1309.6,-1387.5,-3180.6,-3535.8,-3875,-4101.8,-5073.9,-7127.9,-7838.3,-7351.1,-6897.4,-3896.6,236.27,4486.7,7627.6,7029.6,4255.5,970.3,-4212.8,-8725.4,-11193,-8237,-794.82,5286.7,7756.3,6436.5,1607.3,-4966.4,-9580.2,-12144,-17591,-18560,-11410,-2631.8,135.85,-2024.7,-6583.7,-13249,-19673,-21158,-18787,-13836,-10317,-10542,-8573.4,-8874.4,-10983,-10900,-9481.8,-11286,-16286,-17268,-14121,-10111,-5904.2,-4479.4,-6920.8,-10747,-11544,-6536.5,-432.03,1710.6,-1551.9,-4025,-7156,-14079,-18571,-14395,-3225.7,6287.1,8627.3,2850.5,-2821.4,-6268.9,-7844,-5756.6,-6176.6,-6295.9,-1697.8,4261.7,9885.7,13942,14223,15306,18436,20124,17737,11295,3211,-4236.5,-6920.5,-1803.7,194.45,-768.44,3703.2,10763,14840,17437,20686,19545,15312,13107,11765,13054,17571,18102,15672,13380,10086,5119.2,953.23,-2297.7,-4535.6,-4383.7,1603.7,9420.5,16648,20284,15616,3203.1,-4688,-578.26,5849.7,12224,14594,6736,1611.3,-760.6,-2605.5,-816.77,3076.3,3697.2,566.03,-5207.2,-8764.7,-5857.7,2035,8430.5,9964,7426.3,2982.6,-3954.7,-6931.4,-7666.1,-9083.8,-11619,-15523,-16865,-15596,-14434,-12213,-8907.6,-6536.8,-9716.1,-14467,-16503,-17289,-18563,-17207,-10833,-9163.2,-7771.5,-2239.1,595.73,-3375.6,-6753.4,-6806.7,-6290.1,-11086,-15551,-12992,-6410.7,-3059.4,-2046.9,-3272.5,-5215.7,-6316.2,121.45,6449.1,4611.5,1268.2,-1163,-3328.3,-6383.6,-10429,-12371,-9572.9,-3622.8,3049.4,5585.5,252.31,-3924.6,-4135.7,-3528.5,-961.08,267.88,-4473.6,-7343.3,-5271.1,-6051.4,-8433.9,-6714.5,-4350,-7884.5,-15005,-17461,-15641,-6748.5,5468.9,13009,14709,11221,3603.9,-5256.3,-3790.1,4692.6,10500,12959,8906,2119.6,-1310,-2405.4,-3285.2,576.68,6333.7,7154.4,3790.2,-1988.6,-4960.7,-1165.9,1667.3,895.26,-1248.8,-1436.6,-72.576,480.25,2203.4,3258.2,3968.5,5545.5,9512.5,11161,7858.4,3432.7,-1164.2,-3996.1,-2203.4,-181.67,-38.972,-1717.8,-2468.7,-2279.1,-1988.8,606.63,1968.4,1261.9,-501.31,-3467.8,-3960.8,-769.19,5524.5,8141.2,5943,3009.6,-1563.1,-6215.6,-8977.4,-8123,-4912.9,-892.68,2430,2156.6,-1695.6,-4042.8,-3539.4,-2646.3,-3339.5,-2620.4,-1604.9,-1471.3,-4174,-7252.6,-8512.2,-8231.4,-6347.7,-935.21,1703,-481.2,-1341.9,-2159,-3713,-6384,-10827,-10007,-4803.9,-3833.6,-9379.7,-9019.4,-3711.8,-1220.3,289.79,2788.6,4983.6,2021.6,-1141.6,-1112.1,395.97,-236.46,-4126.5,-4260.5,328.12,4741.3,7385,5751.1,3416.6,1447.8,-411.03,-1863,-3749.4,-4444,-2161.2,246.44,-238.78,-1415.4,-1296.9,-256.09,-828.67,-2002.1,81.944,1385.8,371.15,-275.66,-298.92,-1558.5,-2000.8,-2126.9,-506.34,3906.5,4995.8,2710.9,773.92,-698.44,-2864.3,-5117.5,-7552.6,-7909,-1991.7,5514.8,6078.9,2711.8,2361.8,4752.8,5696.3,4588.2,3075.8,2634.1,531.73,-2393.3,-1266.3,995.84,-198.32,-1274.3,-1942.8,-1520.2,529.35,790.01,-626.14,-3500.8,-5403.8,-4636.3,-2876.2,-1550.8,-2030.5,-1718.4,-345.37,2115,2870.7,1226.6,-476.67,-1813.9,-813.9,-314.93,-2457.5,-5195.2,-6012.5,-4210.2,-4236.3,-4962.9,-5712.4,-5983.2,-3829.3,-2622.7,-3974.3,-3778.3,-66.384,4737.4,4713.4,1093.3,-923.24,-1452.2,-814.21,-458.63,-2621.6,-5070.8,-5747.9,-5820.8,-7016.4,-7107.4,-4338.1,-2005.1,-1540.1,-5089.7,-7911.4,-4246.5,81.646,2591,1940.4,1104.1,-96.163,-1300.3,-1496.7,-2382.7,-3156.4,-3512.4,-233.58,2888.1,1640.1,-1221.9,-3954.6,-6287.5,-9090.8,-9968.9,-7841.2,-2569.7,1020.2,1334,-740.58,-2670.7,-1061.4,1408.8,1992.8,2026.3,2027.2,625.73,-3165.4,-4163.4,-4015.1,-3914.3,-1657.3,1833.5,2860.5,1445.4,-289.59,-1629.6,-2259.3,-2360.5,-1994,-2340.6,-2877.8,-2744.3,-1976.6,-2824.3,-4987.4,-5099.4,-3961.5,-3497.9,-2772.1,-438.95,-84.827,-1356.1,-2375.9,-2899,-570.22,2586.9,984.7,-2368.3,-3419.7,-4317.8,-2658.4,-481.48,-388.91,-1684.8,-1597.1,1098,2588.7,2969.7,2180.2,294.01,-1577.3,-1633,-1138.7,-1887.1,-688.3,932.74,1162.8,935.76,121.95,846.38,2139.8,1008,-1523.5,-3724.9,-5541.1,-7171.7,-6878.2,-3223.8,441.34,-759.87,-2939,-3547.1,-2304.5,-2106.7,-1233.3,2177.4,3222.7,2452.5,723.38,-1387.3,-3897.2,-3818.4,-1940.2,-871.36,1478.9,4051.2,3619.7,2609,2385.7,2409.5,1916.1,254.07,-1662.3,-3626.2,-3979.5,-2927.8,-1568.8,110.03,725.08,1267.5,2614,1668.3,-187.16,-2112.7,-4391.8,-4944.1,-4151.8,-1279.4,1178.2,232.38,-448.33,-1350.1,-1487.9,-54.037,562.62,2074.7,3259.9,1018,-1752.1,-2643.9,-2309.9,-2174.3,-1503.2,-472.92,1313.9,2175.3,1259,106.96,-999.85,-3001,-3539.9,-2381,83.677,2262.6,1412.8,718.34,1344.2,1604,135.22,-1687.7,-3053.9,-3138.4,-608.51,1301.1,1893.1,2163.1,1724,-460.75,-2299.5,-2998.9,-3361.5,-4222.3,-4520.5,-4344.9,-4526.5,-4325.9,-3341.4,-1114,758.36,934.09,321.93,-1622.6,-3443.5,-3091.6,-1843.3,-580.64,-808.29,-2361.5,-2453.3,-1672.3,-734.21,1278.3,2578.5,940.85,-1891.7,-3523.1,-2994.1,-1473.9,-976.7,-996.59,-3038.4,-5867.3,-6340.7,-4535,-2463.3,-819.28,525.19,1554.7,2201,2137.8,1099.5,-1458.1,-3842.9,-5554.2,-6067.4,-3593.5,-433.64,-257.89,-706.2,-1426.4,-2069.7,-3085.8,-3880.5,-3666.1,-3687.1,-4816.9,-5248.4,-3366.4,-1726.1,-596.17,-1632.9,-3544.3,-4183,-4434.6,-3491.4,-3368.1,-3262.8,-3299.6,-4144.3,-5227.7,-5591.8,-5139.2,-4408.1,-3541.2,-3045.3,-2770.5,-2384.1,-1707.3,-1082.5,-1299,-1786.7,-2196.5,-2444.8,-2679.5,-2236.4,-1547.2,-1825.1,-2072.7,-2044.7,-2094.3,-2396.8,-4537.8,-6953.1,-7631,-5828.7,-3141,-2272.8,-1342,167.91,705.1,-277.4,-1957.8,-2713.5,-2959.8,-3051.9,-2245.4,-740.71,1277.8,1445.9,1156.7,-249.43,-2556.9,-2808.3,-1746.4,-979.25,-71.016,927.69,656.24,-224.44,-277.45,43.111,788.81,930.65,114.57,-721.35,-116.02,154.04,-1268.6,-828.33,2140.4,4389.8,5034.2,4321,3198.4,1620.5,-693.67,-1643.7,-118.94,1414.6,2032.1,2087,2477,1674.6,559.75,-437.09,-782.81,279.6,1189.6,2888.2,4308.3,4475.2,6406.2,8081,7543.4,6219.3,4818.3,4328.4,4512.7,4329.8,3561,2288.5,843.65,802.42,1759.8,1972.9,2051.1,1626.8,-411.37,-2245.6,