3278.2,1179.4,-171.03,-1026.8,-929.63,729.8,3440,6034,8658.9,10237,10314,10237,9203.2,7187.9,5047.6,3127.5,1347,-365.21,-1726.4,-2720.7,-2328.7,-749.95,881.15,1306.9,897.31,772.42,2489.3,4329.7,4569.9,4794.5,4248.6,2658,100.64,-2576.4,-5251.4,-6509.1,-7236,-8005.6,-9961.6,-13583,-15548,-12657,-8952.7,-6810.4,-5793.7,-5427,-5477.3,-6345.9,-7807.1,-9629.2,-10848,-11617,-12506,-13132,-13112,-12507,-10480,-7207,-4847.2,-2751.3,-1894.6,-3122.1,-6123.4,-9758.7,-12381,-13283,-13215,-13233,-13622,-14715,-15261,-14312,-13021,-11969,-11331,-10736,-10467,-10525,-10528,-10749,-10982,-11300,-11652,-12028,-12554,-13142,-13787,-13672,-12521,-11498,-11010,-11152,-11579,-11635,-11395,-10766,-10111,-10894,-11741,-11677,-11201,-10428,-10341,-10933,-11412,-11414,-10724,-10349,-10854,-11698,-12556,-12796,-12220,-11375,-10778,-9341.1,-6912.5,-4597.7,-3334.2,-3439.7,-4127.3,-4701.4,-5484.7,-6794,-8476.3,-10318,-11247,-10797,-10645,-11044,-9307.8,-4329.3,-807.53,1385.1,3657.9,5336.3,6757.1,8191.1,8762.6,7420.8,3096.8,-2019.9,-6069.3,-7725.7,-7464.6,-5617.8,-2164.2,2119.9,5816,8305.5,9847.3,10573,11220,11177,9802.6,7228.7,4078.8,1855.2,449.74,-709.67,-1435.5,-952.65,1338.4,4176.7,7025,8927.3,10089,11174,12168,13443,14085,13587,12750,10931,7870.9,4126.4,1340.5,-11.69,405.59,3043.8,6270,9421,13577,17406,19325,20535,21764,22025,20918,18526,15494,11730,7389.9,3573.7,1441.3,1798.1,4157.1,7668.7,11819,15738,19707,23369,24359,23016,21644,19948,17147,13858,8578.4,3134.2,-516.1,-2299.1,-2635.2,-422.53,4406.8,10041,15030,19780,23480,25366,24987,22180,18346,13269,6976.7,714.91,-4244.3,-7244.4,-7589.8,-5154.9,-1661.6,1818,4974,8540.1,11994,14391,15630,15152,13547,10477,6439.1,2570.5,-1456.7,-6836.5,-11835,-15409,-16306,-13566,-8798.5,-4087.5,500.38,4710.5,7506.8,8106.1,6188.5,2276.1,-1926.8,-6345.5,-10883,-15454,-19471,-21819,-22043,-19708,-16011,-11993,-7661.3,-3269.2,-594.4,293.79,-435.01,-2835.4,-6438.9,-10058,-13730,-18286,-23030,-26891,-28827,-28369,-25123,-19662,-15119,-11738,-8529.9,-6044,-4939.1,-5696.9,-8073.8,-11015,-14284,-18512,-23207,-27214,-29275,-29856,-29459,-27973,-25416,-21073,-15652,-10888,-7073,-5515.4,-7780.7,-11800,-15521,-19270,-22431,-24765,-26350,-27324,-27455,-26215,-24102,-20693,-16101,-12541,-10729,-10166,-9791.5,-11212,-13821,-16080,-18165,-19735,-20613,-20591,-20552,-20319,-19086,-17554,-16098,-12506,-8059.1,-5404.1,-4249.6,-4263.4,-5280.9,-6562.1,-8037.7,-9682.8,-11103,-12088,-12377,-11973,-11106,-10150,-8782.2,-6885.6,-4903.9,-3048.1,-1712.1,-757.74,-396.5,-93.949,41.716,131.07,642.89,1480.9,2454,3125.9,3872.8,5277.4,6215.1,5770.5,4427.8,3551.3,4946.2,6505.9,7748.9,8660.5,9199.5,9787,10929,12640,14456,15454,16079,16403,16171,15606,14086,11490,9816.5,9884.2,10789,12169,13901,15967,18380,21102,23457,25242,26312,26194,25495,24415,21723,18518,15389,13010,12471,13341,15009,17525,21008,24765,27791,29940,31108,31212,30154,28145,25001,21033,17304,13741,10520,9001.5,9957.2,12551,15953,19791,24586,29802,33677,35323,34517,31173,25703,18760,12791,7665.5,2001.3,-1733.7,-1650.3,1626.1,6480,10883,14307,19359,24371,26433,27066,26752,24214,19622,13631,6767.4,980.05,-3266.8,-7191.9,-9321.1,-8592.2,-7143.3,-4601.5,777.06,7604.7,13983,18688,20640,19006,14292,7968.2,819.78,-7156.5,-15450,-22324,-26344,-26845,-24480,-19793,-13631,-7529.7,-1327.3,5071.3,9998.5,11280,8056.2,1492.3,-6841.6,-15664,-24257,-32048,-38037,-41368,-40857,-36889,-31097,-24587,-17515,-10368,-4096.7,-353.48,-574.31,-5053.9,-12156,-20164,-28737,-37268,-44829,-50682,-52644,-50241,-45194,-38104,-29825,-20533,-11661,-5430.8,-3739,-7751.8,-15399,-24466,-33188,-40693,-47317,-52226,-54603,-54650,-51610,-45696,-37123,-27795,-19452,-12679,-9113.7,-8079.6,-10211,-17891,-26457,-32786,-39399,-47392,-53067,-55216,-54781,-49921,-42187,-33892,-25389,-17032,-9541.6,-4339.3,-3138.4,-5583.2,-10689,-17367,-24484,-31473,-37313,-40930,-41277,-38235,-32548,-25818,-18706,-10728,-2669.2,3818.2,7493,7922.4,6017.1,2411.7,-2621.8,-8588.5,-14724,-19803,-22504,-22041,-18768,-13864,-7681.4,-780.69,6935.5,14259,19649,22592,22779,19686,15683,13608,9945.7,4957.1,586.31,-1642.5,-649.48,2570.9,7465.6,13578,20698,28076,34114,37906,40251,39755,35426,30526,27530,25409,21468,18592,19283,21314,23085,27237,31647,34692,38423,43168,46068,46656,47215,47218,46457,44360,41894,39416,37409,36279,36222,37139,38516,40004,42150,45023,47722,49890,51821,53825,51987,47816,45888,45171,44888,45655,46053,45636,44879,41849,36929,33038,31393,31954,34033,36580,38946,40912,42798,44211,44606,43931,42041,39121,35516,31429,26904,21828,16488,12627,11702,13110,16075,20036,24498,28908,32699,34637,33241,29056,23196,16932,9997.3,2295.6,-5840.7,-13505,-18761,-20434,-18347,-13710,-7515.2,-599.95,6106,11658,15126,15180,11215,3706,-5990.5,-16695,-28038,-39605,-49879,-55875,-56170,-51764,-44367,-35493,-26302,-16541,-7646,-3580.6,-4844.3,-10852,-20069,-31632,-45836,-62276,-78013,-88868,-93533,-91725,-84007,-72868,-60178,-46889,-33869,-23844,-19748,-22532,-31157,-44590,-60628,-77565,-95044,-1.1134e+05,-1.2288e+05,-1.2503e+05,-1.1775e+05,-1.0557e+05,-89861,-70697,-54004,-40321,-28774,-23875,-27535,-38967,-55073,-72280,-91797,-1.1239e+05,-1.2979e+05,-1.3889e+05,-1.375e+05,-1.2623e+05,-1.078e+05,-87680,-67863,-47765,-28501,-16031,-15257,-23210,-36926,-54112,-71648,-89535,-1.0893e+05,-1.2619e+05,-1.3358e+05,-1.2894e+05,-1.1452e+05,-93276,-67752,-40539,-15345,4874.7,14900,14189,6885.1,-8480.4,-29934,-52925,-76245,-98242,-1.124e+05,-1.1455e+05,-1.0427e+05,-83174,-54312,-23138,7802.5,35700,56645,67305,66089,54089,34741,11317,-14208,-39791,-61006,-71419,-67558,-49658,-21218,12099,45845,78965,1.0836e+05,1.288e+05,1.3672e+05,1.3135e+05,1.1528e+05,94064,70439,43663,17679,-410.77,-5379,6205.5,30716,61611,93369,1.2511e+05,1.5807e+05,1.8649e+05,2.0362e+05,2.0673e+05,1.9666e+05,1.7877e+05,1.5691e+05,1.3241e+05,1.0759e+05,84863,72896,76624,94736,1.2342e+05,1.5943e+05,1.9786e+05,2.3402e+05,2.6972e+05,2.9987e+05,3.1365e+05,3.111e+05,2.9904e+05,2.7233e+05,2.3524e+05,2.0457e+05,1.8077e+05,1.5626e+05,1.3417e+05,1.2604e+05,1.4284e+05,1.7281e+05,1.9759e+05,2.2612e+05,2.671e+05,3.067e+05,3.3755e+05,3.5546e+05,3.5315e+05,3.3047e+05,2.9803e+05,2.6159e+05,2.2083e+05,1.8569e+05,1.6153e+05,1.5325e+05,1.7e+05,2.0761e+05,2.4573e+05,2.7225e+05,2.9683e+05,3.2101e+05,3.359e+05,3.3968e+05,3.3636e+05,3.2689e+05,3.0669e+05,2.7954e+05,2.4498e+05,2.0428e+05,1.6213e+05,1.258e+05,1.1186e+05,1.2921e+05,1.6143e+05,1.9621e+05,2.3819e+05,2.835e+05,3.1734e+05,3.4308e+05,3.6982e+05,3.7472e+05,3.4364e+05,3.0507e+05,2.8391e+05,2.4529e+05,1.6789e+05,52790,-2.1258e+05,-6.6992e+05,-1.244e+06,-1.8348e+06,-2.3533e+06,-2.8103e+06,-3.2383e+06,-3.5867e+06,-3.7575e+06,-3.681e+06,-3.4577e+06,-3.1186e+06,-2.6828e+06,-2.1783e+06,-1.6196e+06,-1.0352e+06,-4.603e+05,99781,5.9798e+05,9.5238e+05,1.154e+06,1.241e+06,1.2248e+06,1.126e+06,9.7028e+05,7.9937e+05,6.558e+05,5.7351e+05,5.5802e+05,5.9462e+05,6.3267e+05,6.4897e+05,6.6589e+05,6.7379e+05,6.2005e+05,5.3499e+05,4.3957e+05,3.3838e+05,2.7358e+05,2.7052e+05,2.8363e+05,3.1471e+05,3.4786e+05,3.7794e+05,3.9247e+05,3.8503e+05,3.599e+05,3.2483e+05,2.8265e+05,2.3707e+05,2.018e+05,1.8398e+05,1.8255e+05,1.8909e+05,1.9957e+05,2.3033e+05,2.7555e+05,3.002e+05,2.9797e+05,2.9694e+05,2.779e+05,2.3424e+05,1.89e+05,1.469e+05,82683,-108.28,-45425,-53910,-39306,-6563,46380,1.0227e+05,1.449e+05,1.698e+05,1.8544e+05,1.9932e+05,1.9954e+05,1.859e+05,1.6385e+05,1.4172e+05,1.1879e+05,82160,47353,25270,15492,24563,48588,76024,1.0648e+05,1.4e+05,1.7238e+05,1.9953e+05,2.1117e+05,2.0142e+05,1.7509e+05,1.3758e+05,94905,52889,15684,-15908,-36092,-39590,-30468,-10125,16718,41514,64648,90284,1.1081e+05,1.1642e+05,1.043e+05,80177,50972,18391,-15581,-49184,-78260,-94399,-92060,-75036,-49465,-21455,5913.4,33564,58231,67889,62563,47211,25049,-4003.9,-38216,-70258,-97037,-1.1209e+05,-1.1318e+05,-1.0584e+05,-94758,-81074,-68152,-53451,-28839,-3471.2,8821.2,6124.4,-8473.6,-30845,-58711,-86431,-1.1125e+05,-1.3199e+05,-1.4335e+05,-1.4303e+05,-1.3367e+05,-1.174e+05,-99703,-81337,-62806,-45140,-29116,-22598,-28596,-42317,-59709,-79290,-1.0215e+05,-1.248e+05,-1.4169e+05,-1.5174e+05,-1.5198e+05,-1.426e+05,-1.2413e+05,-98787,-69482,-39852,-19851,-14453,-21706,-33976,-47823,-61044,-74613,-93203,-1.1346e+05,-1.2562e+05,-1.2568e+05,-1.1582e+05,-1.0013e+05,-80487,-59484,-40420,-24718,-10380,-3001.8,-4512.5,-13131,-27051,-41084,-52674,-63349,-72680,-78412,-75912,-66367,-54796,-42562,-29792,-18256,-7125.7,4514.6,11867,11256,2682.1,-8238.5,-18238,-26471,-33468,-40605,-46649,-46693,-40672,-28465,-13677,-707.63,9773.2,16877,23095,28084,29824,27603,22549,15407,6496.6,-872.07,-7952,-16647,-18053,-9430.2,1626.6,13770,26482,36961,44055,49058,51730,50160,47164,43905,38333,32745,30489,28778,28238,31299,37280,43538,48182,51675,55481,58726,57350,53867,54055,55594,54511,53218,52374,51042,48994,46281,43657,40801,40484,43556,45785,46006,45876,46140,50285,54273,54093,51862,50188,49029,47274,42252,33406,28081,30161,32987,33061,30882,28831,29398,31579,33645,34882,35553,35919,36395,35267,31895,28058,24955,23012,20760,17982,16042,14575,13399,12838,13312,14839,16280,17399,19496,21727,23831,25734,25555,22824,18785,12866,4960.3,-2450.5,-7793,-10590,-12852,-14257,-12697,-7202.1,925.71,8658.7,14038,16706,15877,11970,5580.1,-2976.8,-12906,-21513,-28822,-33985,-33865,-29840,-24486,-19999,-15539,-9990.7,-3783.5,1220.1,5434,9183,8965.9,3167.8,-7811.2,-22610,-37529,-50105,-56595,-56868,-53340,-46708,-39429,-32891,-26052,-18874,-13788,-11725,-13107,-16667,-21237,-28171,-37325,-46369,-52461,-55040,-54150,-50440,-45090,-38539,-30520,-22129,-14764,-9738.8,-8800.5,-12270,-18901,-26286,-33452,-40050,-46271,-51645,-53466,-52218,-49320,-44369,-35905,-26268,-17224,-9320.7,-4408.8,-4284.7,-9552.2,-17243,-24104,-30235,-35903,-40878,-44890,-46639,-44855,-39540,-32056,-24110,-15539,-6534.6,1449,6214.4,6506.3,3154.7,-2124.9,-8956,-16579,-23596,-29188,-32728,-31784,-27556,-21635,-14358,-6650,1992.7,10268,16086,18529,17007,11841,5298.6,-757.66,-6109.2,-11163,-15028,-16377,-14583,-9629.2,-2632.6,5627.4,14471,21542,27237,31553,32314,29150,24164,18389,12118,6707.8,1308.5,-3652.5,-6222.5,-5763.5,-2248.9,3135.2,8727.4,14334,20182,25363,28701,28729,25812,21058,15615,9597.6,3616,-744.99,-2590.1,-1679.4,1961.2,7026.2,12431,17379,22091,26589,29565,30705,28763,23847,18954,15014,13265,12684,11529,9702.9,7867.3,8249,12393,17142,20985,25635,30263,33512,34942,34721,32836,29637,25381,-1179.7,-1243.2,-982.91,-605.12,-104.56,144.89,84.931,-355.35,-871.04,-850.21,-475.57,262.56,814.26,660.89,-173.72,-1384.4,-2312.3,-2499.5,-2192.7,-2019.6,-1803.3,-1714.2,-1729.9,-1802.4,-1947.4,-2208,-2243.9,-1892.6,-1546.6,-1568.4,-1717.6,-2194.1,-2625.1,-2876.5,-2894.5,-2752.4,-2577.8,-2376.2,-2107.1,-1924.2,-1938,-2028,-1927.3,-1826.2,-2088.7,-2424.8,-2517.7,-2575.6,-2801,-2906.6,-2753.3,-2887.8,-2869.9,-2734.4,-2563.2,-2317.4,-2136.5,-2249.1,-2660.2,-2999.4,-3383.1,-3487.4,-3489.9,-3594.3,-3753.8,-3844.6,-3965.3,-3963.5,-4011.4,-3667.2,-3339.3,-3087.8,-2971.5,-2975.9,-3163.5,-3352.1,-3485.1,-3338.3,-3310.1,-3304.1,-3704.2,-3886.9,-3594.4,-3465.7,-3226.2,-3096.6,-3018.8,-2855.8,-2708,-2427,-1936.6,-1777.9,-2089,-2439.1,-2847.6,-3123.3,-3383.9,-3355.4,-2931.7,-2699.1,-2712.9,-2645.7,-2374.5,-2223.5,-2286.1,-2529.5,-2570.9,-2414.3,-2280.4,-2236.1,-2378.1,-2716.6,-3170.7,-3308.9,-2851.5,-2267.5,-1870,-1693.3,-1560.9,-1588.6,-1503.5,-1150.6,-1063.5,-911.01,-636.59,-446.89,-652.63,-1098.9,-1458.5,-1786.7,-1783.7,-1538.5,-1094.7,-874.92,-894.93,-893.21,-917.24,-922.06,-886.94,-482.76,-119.44,21.458,-99.602,-516.87,-1265.7,-1673.8,-1516.9,-1329.7,-1135,-560.48,98.542,331.86,-83.412,-988.29,-1366.9,-921.2,-375.07,123.09,598.35,754.87,467.01,-106.38,-473.33,-487.06,-174.37,482.96,1202.6,1496.2,1320.6,1078.2,642.62,542.56,1061.2,1666.5,1883.6,1525,1107.1,655.07,149.45,-263.17,-70.555,567.01,1218.9,1565.8,1746.7,1600.9,1505.2,1514.1,1567.6,1828.1,2157.9,2543.6,2372.1,1589.1,710.65,526.18,595.98,950.87,1579,2115,2164.6,1772.9,1237.6,1203.2,1167.9,1334.2,1693.6,2119,2324,2010.7,1404.1,537.18,-293.49,-373.48,287.06,1154.9,1638.9,1577.6,1123,331.1,-165.42,-303.09,-241.46,279.8,834.59,1076.7,785.68,-110.35,-1080.8,-1755,-1624.3,-826.12,-3.7201,441.24,439.47,115.07,-356.85,-1213.4,-2031.3,-2171.9,-1768.1,-1219.5,-951.49,-1382.1,-2204.8,-3001.1,-3047.8,-2625.4,-2067.2,-1289.7,-920.65,-1311.4,-2031.2,-2782.6,-3407.7,-3673.7,-3394.7,-2909.9,-2589.1,-2715.8,-3176.1,-3991.1,-4716,-4806.8,-4302.1,-3663.8,-3158.5,-2972,-3289.2,-3826.2,-4481.4,-4882.5,-4916.5,-4486.5,-3962.5,-3506.6,-3425.1,-3917.5,-4560.5,-4890.3,-4837.6,-4277,-3837.6,-3827.3,-3800,-3858.6,-4011.9,-4477.5,-4918,-5063.6,-4903.8,-4353.2,-3910.7,-3998.1,-4440.7,-4817.5,-4906.4,-4672.5,-4335.3,-4048.9,-4018.8,-4174.7,-4239.8,-4411.5,-4759.7,-5081.4,-5026.4,-4713.4,-4260.3,-4125.8,-4355.9,-4698.2,-4884,-4752.4,-3982.2,-3062.6,-2249.6,-2335.7,-2949.7,-3515.1,-4045.9,-4276.5,-4428.9,-4660.7,-4802.7,-4645.3,-4299,-3936.2,-4275.6,-4338.4,-3999.5,-3560.2,-3343.3,-3414.2,-3324.4,-3227.6,-3424.4,-3530,-3366.6,-3158,-2940.5,-2701.7,-2356,-1725.8,-1334.3,-1175.7,-863.65,-465.91,-186.83,-75.009,-215.09,-871.93,-1189.1,-921.67,-595.88,-678.2,-874.61,-648.34,-213.5,75.634,482.67,859.86,931.17,998,1162.3,1071.5,830,790.31,990.34,1170.3,1114.2,1101.1,1109.4,1278.7,1404.6,1332.3,1448.5,1984.8,2605.6,2891.4,2907.2,2793.8,2784.8,2707.3,2812.5,3289.4,3562.2,3614.3,3539.4,3051.4,2539.9,2432,2564.4,2989.7,3547.7,4085,4781.5,4749.9,4194.2,3733.4,3004.7,2770.2,2940,3307.3,3310.2,2949.1,2593.2,2394.9,2225.5,2484.8,3306.4,4185.4,4566.8,4345.6,3432.1,2151.7,1559.8,1757.2,2064.7,2572.6,3260.1,3379.2,2953.3,2190.1,979.92,397.37,822.48,1734.9,2837.8,3819.4,3861.8,2995.4,1962.3,1087.9,663.48,822.7,1182.4,1253,810.35,388.49,-176.96,-755.05,-889.33,-257.17,666.9,1271,1437.5,691.29,-473.88,-1341.3,-1841.2,-1746,-1345.4,-879.54,-739.42,-953.76,-1507.6,-2053.7,-2498.9,-2453.5,-1709.9,-563.71,-81.686,-384.89,-1358.1,-2512.2,-3307.6,-3338,-3061.2,-3046.4,-3519.2,-4380.1,-4648.3,-5136.2,-6030.1,-6485.2,-6096.2,-4737.8,-3181.9,-2584.5,-2968,-4298.5,-6035,-7041.1,-6875.6,-6131,-5410.8,-4774,-4407.8,-4784.5,-5628.1,-6495.4,-6948.3,-6479.1,-5126.7,-4120.3,-3944.7,-4693,-6078,-7073.9,-7686.3,-7656.3,-7110,-6553.6,-6122.1,-6162.5,-6665.5,-7655.3,-8454.7,-8506.8,-7299.1,-5660.2,-5053.5,-5602.3,-6639.5,-7985.5,-8836.6,-8804.6,-8076.7,-7300.7,-6750.2,-6332.5,-6422.4,-7045.5,-7961.7,-8302.9,-7821.9,-6607.4,-5209.4,-4380.4,-4357,-5281.9,-6852.2,-8046.3,-7810.5,-6815.4,-5652.4,-5061.3,-5187.8,-5603.4,-6022.3,-6679.6,-7150.7,-6544.3,-5295.6,-4224.6,-3703,-4049.9,-4954.6,-5705.4,-5903.6,-5494.9,-4432.4,-3020.4,-1793.9,-1108.3,-1320.2,-2497.9,-3682.2,-4034.9,-3427,-2038.2,-840.4,-597.15,-1184.5,-1964,-2461.5,-2505.6,-1911.8,-772.82,370.24,1368,1986.2,1827.7,1228.3,427.06,197.92,920.44,1831.8,2239.7,2172,1605.3,710.87,567.03,1224.9,2097.1,3018.3,3914.5,4480.6,4910.9,4903,4506.7,4046.6,3957.2,4587.6,5313.1,5310.9,4925.5,4564.7,4391.8,4621.5,4918.9,5347.7,6014.5,6685.7,7235.3,7587.2,7479.5,7234.7,7034.2,6971.5,7235.6,7332.7,7088.7,6574.2,6210.9,6298.9,6397.5,6259.5,6264.9,6593.8,7272.2,8116.8,8764.9,8823.9,8390.6,7713.4,7368.3,7028.7,6592.9,6686,6802.3,6983.5,7351.5,7254.7,6963.6,6942.6,7195.3,7525.4,7826.8,7853,7704.7,7289.2,6431.9,5171.8,4206.9,3809.6,3701.6,3873.3,4182.5,4303.2,4124.5,3957.9,3830.3,3966.7,4293.4,4718.3,5027.4,4764.2,4318.3,3312.1,1687.6,157.67,-415.05,2.1074,961.96,1763.1,2066.8,1648.6,1034.1,513.89,348.26,884.21,1371.3,1480.1,1048.5,-338.7,-2268.8,-4186.7,-5507.8,-5639.5,-4845.1,-3733,-3376.8,-3710.5,-4395,-5260.3,-5662.6,-5329.1,-4388.4,-3104.9,-2551,-3429.7,-5759.9,-8808.1,-11408,-12706,-12113,-10431,-9094.5,-8935.3,-9468,-9562.9,-9415.8,-9618.2,-9881.1,-9644.7,-8998.2,-8304,-8889.3,-11954,-16171,-19087,-18982,-15332,-12032,-10787,-11546,-13643,-15780,-17666,-18804,-18381,-17176,-14852,-11159,-11185,-14548,-19243,-23792,-26758,-24069,-17367,-14673,-15355,-15664,-15179,-17078,-23476,-26161,-22215,-14782,-11228,-11903,-12879,-14493,-15911,-16042,-13751,-10241,-14170,-19467,-20660,-22255,-24483,-20286,-11465,-6076,-3575.8,-6493.2,-11708,-16321,-18213,-16982,-13387,-9168,-5870.9,-4710.7,-5860.4,-8434.2,-10466,-10606,-9308.3,-6932.5,-4044.4,-1903.7,-1738.3,-4145,-7816.8,-9145.1,-6639.7,-3568.4,-1337.7,729.12,896.62,-665.4,-2414.5,-2521.4,-68.915,3810.5,8156.1,11263,10061,6389.1,4373.3,4713.3,6169.6,8887,13149,19029,23438,23939,20261,16437,15954,17130,19640,25342,30017,25912,17098,8456.9,2267.5,3595,14151,27114,38024,45277,46414,43707,43797,45655,48749,51372,50233,49360,55959,62699,64212,62332,58658,48017,35983,30272,23862,19615,23698,32259,30517,25570,28238,34180,36207,32961,22014,13430,13681,19763,32721,53107,75248,87861,90680,80425,65489,59773,56345,46911,43226,41649,35276,28634,24376,12744,1183.5,650.02,8379.1,22584,32159,30482,22287,9123.8,-3850.6,-18366,-32577,-37590,-30325,-15485,-18511,-33626,-50669,-73251,-98907,-1.0974e+05,-1.1686e+05,-1.2966e+05,-1.5338e+05,-1.8361e+05,-2.3734e+05,-3.2684e+05,-4.2009e+05,-4.4346e+05,-4.404e+05,-4.1047e+05,-3.2351e+05,-1.84e+05,-46459,27757,36271,3963.9,-49596,-1.0218e+05,-1.2028e+05,-83504,-5157.2,87102,1.5912e+05,2.0282e+05,2.3655e+05,2.6461e+05,2.5077e+05,1.9156e+05,1.1694e+05,45112,-19986,-79014,-1.1124e+05,-82236,-37780,-11251,7757.1,19577,17542,11310,5954.4,2326.5,-2989.3,-2622.1,8993,18962,20124,22608,26880,31213,33666,25022,9127.9,-6062.1,-2248.6,19916,25152,17493,6311.4,-2547.2,-6850,-12131,-19352,-27055,-32698,-24490,-7648.1,6378.4,17502,29397,34198,35231,39166,38297,42844,45888,38507,18884,-987.11,-9035.3,-7587.2,-678.09,10482,22571,29131,29293,25024,20458,21136,21514,17562,9000.2,-441.76,-3408.5,-1567.2,4539,12023,18507,25111,27532,24405,20602,20901,22449,21874,18537,15328,14739,18299,24037,26246,24490,23553,24223,26961,27988,27455,27717,26759,24580,24487,24889,26325,28373,29262,25448,17019,8659.2,3872.4,4575.7,10262,16979,21149,22190,22632,22329,20208,17120,13044,8599.7,8601.9,10412,8505.1,4174,1490.7,320.55,1277,3304.2,4013.7,1693.1,221.4,-389.96,-2594,-5377.4,-7875.6,-7733.6,-4195.7,-1777.1,-3187.7,-9704,-19977,-26683,-28710,-27358,-22331,-16790,-15684,-21145,-28851,-31709,-31076,-29229,-26205,-22983,-21050,-20824,-21828,-23124,-23596,-22198,-19156,-15790,-13578,-12619,-12903,-13939,-14246,-15254,-17080,-18580,-18796,-19139,-19906,-21222,-22506,-23598,-21165,-16556,-14470,-15125,-17043,-19948,-24127,-27358,-29554,-32142,-34991,-34311,-30133,-26742,-25724,-26575,-27101,-25855,-23315,-20608,-19013,-18919,-19997,-22423,-24293,-24557,-23026,-19587,-16767,-15101,-15528,-16463,-16419,-15741,-14703,-12848,-11795,-11756,-12242,-12408,-12748,-13375,-12971,-11581,-9829.2,-8029.2,-7041.5,-6487.7,-6156.8,-4501.7,-2067.6,461.38,1695.9,1932.9,2290.1,2684.9,2374.9,2418.1,3328,4789.5,6957.3,9718.6,11683,10943,8170.8,6778.8,7732.5,10091,12410,13931,14988,15283,14967,14283,13786,13077,13642,15919,16988,18065,18935,19816,21441,23207,24884,27252,29422,30265,28052,22956,18947,18873,20239,21372,22931,25065,26652,27762,28798,28894,28683,28070,26908,25646,24760,24062,22428,19726,17655,16941,17168,16308,15078,14866,15373,15349,14676,13289,11590,11957,12663,12387,11358,10360,9235.9,8227.9,7368.5,6144.2,4969.1,4705.7,6359.6,8541.4,8802.6,8295.5,7810,6147.4,3874.8,2319,2121.7,2352.5,2713.9,4265.6,5206.1,4681.4,2995.9,733.39,-872.69,-2972.7,-6237.8,-8955.5,-10552,-12264,-13669,-14749,-15225,-14179,-13225,-13396,-14041,-14484,-14959,-15465,-15060,-13451,-11121,-9677.7,-9526.1,-10638,-12941,-15081,-15701,-14418,-12594,-11911,-12688,-13765,-15037,-16717,-19058,-21254,-20198,-17691,-16491,-17977,-21201,-25105,-27277,-27543,-27395,-26536,-24385,-22534,-22812,-23786,-24066,-23428,-21916,-20801,-20885,-21249,-20614,-19986,-19130,-18084,-16329,-14233,-12353,-11646,-11833,-12382,-13636,-14900,-14795,-14303,-12912,-11205,-10212,-10881,-13027,-14139,-14188,-13190,-11244,-9508.6,-7969,-7836.2,-8372.5,-8703.5,-8644.4,-7562.4,-5173.4,-2237.3,-228.23,630.98,739.21,44.381,-829.94,-645.82,779,2914.7,5086.7,6506.5,7303.4,6891.8,5202.3,4083.2,4311.1,5150,6489.5,7936.1,8946.5,9044,8620.9,8740,9667,10810,11686,11857,10795,9488.3,9122.6,8924.2,9025.6,10278,11571,12172,12151,11593,10924,10639,10100,8939.3,7879.5,7930.1,9393.8,9902.4,9102.8,8708.2,8753.7,9172.8,9784.3,10302,10741,10980,10434,9344.1,8567.7,7967.4,7575.5,7304.1,7619.5,8653.3,9411,9637.7,9465.1,9385.2,10001,10566,10872,11444,11606,10092,7431,5497.7,4698.8,5080.7,5660.1,5841.2,6138.7,6330.7,6086.1,5422.5,4477.3,3829.9,4280.6,4922.5,5094.6,4433.5,3156.5,1959.7,-538.12,-515.83,-641.04,-747.66,-918.97,-1069.1,-1126.5,-1086.7,-1069.4,-1363,-1907.4,-2381.6,-2415.2,-2145.8,-1912.9,-1551.6,-1134,-897.37,-625.2,-268.75,-148.46,-294.2,-679.27,-1295.8,-1571.6,-1312.1,-1135.2,-1394.8,-2083,-2827.9,-2972.2,-2473.6,-1824.2,-1233.3,-743.28,-520.62,-393.87,-349.57,-535.64,-699.71,-805.13,-790.74,-969.56,-1297.4,-1572.9,-1870.5,-2109.9,-1910.2,-1606.6,-1112.6,-541.73,-191.88,197.69,103.94,213.35,335.52,-125.34,-567.29,-608.53,-862.88,-1315.9,-1759,-2080.8,-2229.3,-1923,-1201.1,-860.7,-592.21,-120.54,315.59,329.68,342.03,162.52,6.1495,-69.001,-179.34,-564.02,-1162.3,-1779.8,-1882.8,-1389.9,-1202.2,-975.16,-435.03,-231.27,-167.37,37.907,-93.838,-369.86,-412.73,-239.29,-67.749,73.59,-255.39,-831.27,-1528.4,-2002.6,-1815.2,-1701,-1711.3,-1414.5,-1073.6,-838.62,-593.76,-729.16,-1006.8,-943.43,-748.53,-739.12,-952.91,-1171.2,-1746.3,-2005.3,-1852.5,-1657.1,-1675.2,-1441.7,-1370.8,-1135.3,-786.71,-587.34,-936.21,-900.84,-501.19,-279.94,-476.15,-1149.8,-1751.2,-1891.8,-1894.5,-2074.4,-2230,-2070.4,-1777.7,-1510.1,-1150.8,-958.06,-947.68,-986.92,-921.46,-1062,-867.45,-707.11,-1115.6,-1946.2,-2576.2,-2873.5,-2929.2,-2607.3,-2279.1,-2328.8,-2203.8,-1675.6,-1119.1,-845.32,-1063.6,-1617.1,-1669.9,-1114.2,-1074.4,-1581.7,-1893.2,-2162,-2209.7,-2202.3,-2346,-2600.4,-2603.2,-2422.1,-2233.8,-1944.5,-1736.6,-1502,-1141.6,-623.89,-246.98,-316.4,-1133.6,-2200.8,-2852.1,-2796.6,-2386.8,-2274.6,-2361.4,-2170.4,-1804.2,-1405.5,-1208,-1263.1,-1249,-1098.4,-1249.1,-1333.3,-1129.7,-936.13,-728.85,-1119.7,-1627.5,-2027.9,-2222.6,-2128.4,-2154.1,-1838.4,-1613.4,-1062.1,-489.61,-469.21,-1088.5,-1462.9,-1435.1,-1201.4,-977.48,-1193.6,-1721.7,-2043.4,-2233.3,-2615.8,-2794.3,-2499.3,-2165.4,-1847.8,-1545.9,-1458.9,-1401.7,-1869.8,-2188.1,-1653.4,-947.18,-536.79,-445.11,-705.07,-1239.5,-1583.5,-1789.3,-1833.4,-1951.9,-2528.2,-2843,-2554.4,-2078,-1688,-1295.6,-1482.9,-1438.6,-854.53,-615.14,-792.09,-1014.8,-1208.3,-2021.4,-2409.8,-2172.8,-1716.5,-1268.1,-910.19,-1170.9,-1447.2,-1248.2,-1104.7,-1121.5,-908.21,-402.77,-37.183,-223.52,-427.18,-788.64,-1221.7,-1499.5,-1779,-1951.9,-1899.9,-1617.9,-1335.5,-1142.8,-931.65,-825.96,-530.94,-68.102,656.06,815.91,455.67,-49.519,-736.35,-1169.1,-1348.5,-1555.9,-1642.3,-1439.3,-1147,-521.93,-14.489,122.84,93.307,270.28,777.55,1286.7,1440.2,1261.9,504.15,-99.631,-187.68,-526.22,-969.84,-1188.4,-1238.8,-1219.6,-969.35,-557.87,-266.08,63.358,645.26,1250.9,1636.1,1514.9,987.67,264.51,-565.47,-1397.4,-2079.5,-2200,-1865.3,-1159.5,-536.96,-254.81,-529.22,-803.77,-421.77,490.32,1125.2,1317.1,1039.7,364.04,-102.09,-419.09,-762.25,-1334.3,-1944.5,-2376.2,-2417.5,-2292.4,-2108.9,-1953.2,-1706.4,-1009.1,-197.25,350.97,355.03,0.29031,-305.2,-617.2,-1219.3,-1905,-2498.9,-3023.9,-3440.3,-3288.7,-2900.9,-2734.1,-2603.8,-2243.9,-1452.5,-741.19,-443.76,-625.17,-971.56,-1377.4,-2100.1,-2781.7,-3365.9,-3704.4,-3772.7,-3814.4,-3838.3,-3514.1,-3281.5,-3007.6,-2745.4,-2010.9,-1202.4,-729.09,-456.46,-803.89,-1518.6,-2256.6,-2695,-3214.8,-3647.4,-3750.3,-3473.7,-3070.2,-2997.8,-3122.2,-3012.9,-2461.9,-1643.6,-1051.2,-753.65,-762.43,-1045,-1586.5,-1911.8,-2174.8,-2684.5,-3088.7,-3091,-2817.4,-2746.4,-2969.8,-2971.9,-2677.5,-2211,-1577.8,-1091.8,-782.77,-838.72,-1245.9,-1651.9,-2067.9,-2679.3,-3368.9,-3566.2,-3213.5,-2621.3,-2612.9,-3003.6,-3276.5,-3019.3,-2210.8,-1522,-1118.7,-929.65,-1206.5,-1090.9,-420.57,-431.97,-1269.4,-2382.2,-2943.1,-3163.3,-2904.9,-2615.6,-2717.9,-2780.4,-2578.2,-2111.7,-1645.6,-1267,-920.12,-423.84,-30.673,114.38,-33.493,-544.12,-828.67,-1014.1,-1066.4,-889.76,-885.52,-1461.7,-1860.4,-1868.4,-1774.1,-1327.2,-898.05,-546.69,-34.72,391.06,618.81,497.84,343.37,252.93,-288.55,-895.27,-1146.6,-1309.7,-1500.8,-1431.8,-1481.1,-1497.2,-909.49,-188.68,478.31,909.86,1365.1,1566.9,1062.9,519.45,384.92,357.09,59.913,-297.09,-670.26,-808.43,-858.8,-1017,-724.52,148.78,874.15,1460.3,1728.9,1763.3,1267.7,671.72,460.29,415.88,298.48,113.66,-66.87,-334.06,-528.07,-727.79,-1060.8,-1111.8,-889.09,-318.02,307.22,948.42,1361.9,1487.8,1292.7,914.48,745.22,439.37,-159.86,-336.49,-217.93,-284.58,-853.62,-1649.6,-2330.3,-2268.8,-1407.2,-396.34,463.57,1052,1144.2,1054.7,1102.3,687.11,17.297,-421.55,-583.68,-1244.6,-2298.6,-2812.5,-3034.9,-3090.5,-2593.2,-1578.8,-735.27,-254.41,225.23,637.9,726.25,270.71,-471.44,-899.8,-819.08,-652.38,-699.28,-1746,-3626.7,-4713.5,-4723.8,-4171.2,-3409.9,-2523.6,-1654.8,-735.96,-42.017,-126.49,-601.12,-1000.4,-1296.3,-1461.7,-1648.3,-2477.1,-4111.9,-5912,-6390.4,-5087.6,-3345.4,-2464.1,-2026.9,-1332,-599.84,-49.928,-126.9,-728.74,-1325.2,-1737.5,-1957.4,-2409.8,-3189.7,-4186.9,-5155.1,-5622.3,-5362.9,-4762.4,-3875.2,-2862.7,-1789.1,-988.37,-227.02,-328.66,-1073.2,-1670.3,-2086.3,-2221.5,-2481.3,-3545.2,-4944.7,-5857.9,-6050.5,-5379.4,-4525.1,-3652,-2543.3,-1106.8,-179.34,-13.967,-539.7,-1363,-1850.9,-1912.2,-1876.4,-2023.6,-2807.2,-4079.2,-4822.5,-4870.5,-4527.4,-4075.1,-3415.5,-2489,-1616.1,-1183.2,-1128.2,-1228.8,-1492.4,-1559.4,-1272.2,-1399.4,-2513.5,-4063.2,-5076.9,-5195.4,-4977.5,-4697.9,-3993.3,-3119.6,-2011.5,-740.94,240.67,502.31,-5.8214,-673.75,-782.2,-823.89,-1398.2,-2675.3,-3784.1,-4225.8,-4056.9,-3464.3,-3256.1,-3083.8,-2343,-1230.1,78.234,1011.2,1207.3,617.69,334.23,503.23,451.66,-176.15,-1141.9,-2248.2,-3127.8,-3314.3,-3216.1,-2807.1,-2162.1,-1056.9,189.84,1365.7,2109.2,1896.9,1736.8,1986.8,2254.7,2285.3,1381.3,-56.405,-1077.1,-1586.5,-1590.1,-1603.3,-1653,-1067.8,68.861,1288.3,2373.4,3140.7,2930.6,2421.3,2280.8,2212,2021.5,1386.5,724.87,408.4,551.52,454.1,-149.93,-626.06,-485.89,176.22,1368.9,2274,2482.3,2490.6,2811.9,3391.2,4056.8,3911.6,3309.5,2383.5,1243.4,552.12,316.7,150.25,-238.41,-971.21,-1195.8,-487.7,1454.8,1597.9,-694.66,-2130.7,-2119.5,-107.06,1620.5,3099.3,2532.4,849.39,103.8,322.6,1315.6,2200.9,3011.1,3089.9,2461.7,668.97,-428.83,1128.8,3293.4,3739.9,3310.1,3037.6,2863.8,2512.4,1516.6,-41.94,-1598.2,-2622.7,-2736.9,-2016.6,-1104.3,-200.76,631.23,1076.6,1346.8,1553.5,1900,2318.5,2760,2693.2,1936.4,825.08,-407.21,-1956.5,-3398.9,-3811.9,-3641.9,-3625.6,-3826.3,-3408.2,-2883.1,-2558.3,-1977.6,-1408.2,-673.75,251.12,694.92,141.41,-1148.8,-3214.2,-5173.1,-6595.2,-7407.6,-7543.5,-7210.3,-6541.1,-5709.1,-5725.5,-6041.2,-5918.4,-5504.2,-3369.8,-776.08,-540.74,-2412.7,-4499.6,-6548.8,-8388.7,-9278.4,-10326,-13325,-15459,-14595,-12040,-9990,-8975.8,-10248,-11659,-8575.1,-4214.3,-1027.3,-111.96,-2755.8,-7395.8,-14936,-22045,-23718,-21106,-13167,-7721.3,-4827.2,-178.78,2568.9,2722.3,2034.9,747.32,-181.67,-574.5,-1812.5,-4872.6,-7887.3,-9964.3,-12000,-14069,-15326,-15196,-14575,-14151,-15209,-17395,-15325,-7023.5,1485.3,5205.6,7149.6,8171.6,5196.6,-1149.5,-4601.7,-5974.1,-11862,-19332,-22084,-18718,-13009,-8587.4,-5770.6,-2568.9,1098.2,2780.3,3090.7,1068.3,-2032.2,-3350.5,-4047.7,-5219.5,-6076.8,-6044.1,-5150.1,-3047,-1439.4,-489.29,864.29,2781.2,5979.8,11080,16792,19417,17042,12014,8540.5,5149.6,2004.1,985,1648.2,5568.9,12665,18126,18272,14489,13454,19270,27842,33107,32615,32864,35137,37266,37347,35282,26976,20408,27030,37078,33310,25012,26742,33123,36532,33568,24862,13412,10541,17320,22698,20917,11438,2375.9,6556.3,15157,21863,24280,18454,17225,23224,28853,29650,26401,29484,35747,28466,15218,3853.1,-9665.9,-22190,-25744,-26043,-27989,-26415,-19297,-10109,-4151.6,3054.5,13037,20050,7846.3,-13859,-31062,-43759,-57549,-70893,-86212,-1.0463e+05,-1.158e+05,-1.154e+05,-1.0309e+05,-90665,-82925,-69567,-58709,-56590,-58752,-64608,-68319,-59185,-37523,-22788,-22851,-12271,-9677.4,-27305,-63268,-1.1646e+05,-1.6932e+05,-2.1129e+05,-2.3602e+05,-2.1891e+05,-1.5451e+05,-76811,3258.4,70038,1.1624e+05,1.7624e+05,2.2282e+05,2.17e+05,1.8052e+05,1.2725e+05,1.0724e+05,1.2545e+05,1.5505e+05,1.592e+05,1.1641e+05,43924,-1744.3,-35527,-47481,-28865,-11457,-4200.8,-2818.3,918,8811.8,16457,23338,26344,20937,14271,16209,28520,42339,40598,27188,11962,-10755,-33034,-49009,-35540,-2310.4,19045,21584,17311,14851,19540,34575,50942,55781,40349,16892,-1047.9,-9687.4,-20026,-35505,-45317,-45353,-37824,-25654,-9938.4,8153.3,21472,24428,18154,3177.3,-18077,-29574,-26816,-19250,-18054,-20635,-24765,-29141,-30779,-28282,-22709,-17603,-11808,-7427.8,-5224.2,222.01,8747.3,15940,16998,13973,8154.7,1790.8,923.48,3454,1205.3,-603.07,-224.79,-2135.9,-1239.5,-353.06,-4052.8,-6607.9,-833.39,11095,19982,20884,15456,8915.5,2024,-3561.4,-7642.7,-14419,-19698,-19803,-15573,-9558,-6770.9,-4758.1,387.64,7410.4,13872,15291,11736,10206,9545.1,6930.4,3018.3,-1509.2,-4898.1,-6487.8,-6498,-5178.7,-2927.5,-1385.4,28.726,2898.5,7462.7,11988,14083,12590,9550.3,6885.7,5105.1,3225.9,222.3,-2626.3,-3322.9,-2185.3,-1904.1,-2206.7,-3362.5,-4586.8,-3040.6,756.44,3892.2,4712.9,3806.7,2756,2232.4,2035.9,2528.1,3155.8,1413.1,-575.48,-1346.2,-2010.1,-4281.8,-7194,-7521.2,-2643,2820.6,4115.4,2654.4,-145.4,-3444.7,-6961.1,-8438.1,-9938.4,-12137,-11620,-9216.5,-7623.4,-6451.8,-5389.7,-5092.3,-3706.6,-915.12,198.97,-1249.2,-4478.9,-8947.1,-10308,-9532.8,-9718.7,-10267,-10648,-11149,-10557,-8069.2,-4262,-4011.7,-6796.6,-8729.5,-9243.3,-9510.5,-9108,-6717.1,-6511.6,-9039.5,-10415,-13625,-17943,-19982,-18860,-15363,-12197,-10990,-11548,-11839,-10684,-8414.4,-5992.8,-4957.6,-4918.4,-4749,-4402.9,-4146.6,-4434.7,-5151.2,-5006.9,-4702.7,-4674.1,-4772.8,-5519.5,-5984.6,-6074.1,-4894.6,-2308.9,347.27,2209.4,2797,3092.4,4012.5,5028.5,4930,3539.5,1450,-160.37,-345.06,-702.19,-1443.9,-902.77,1918.9,6082.7,10171,13341,14727,14031,11303,8861.6,6167.7,2682.1,771.32,1694.4,3460.9,3504.5,3053.6,2390.3,3119.4,4978,5941.8,4688.6,2128.9,1401,2440.1,3360.6,3688.7,3753.7,3506.7,4130.8,4251.6,3863.4,4554.4,5572.2,5532.4,4693.5,5288.6,7210.4,8849.5,9723.5,9673.2,9750.4,9271.3,8063.6,6974.3,6593.7,6434.8,5267.4,3751.3,3307.3,3067.9,2493.3,1699.4,1416,1611.2,2051.2,2675.2,2827.7,3078.6,3040,2500.4,2404.6,1812.2,416.16,55.598,-247.65,-1068.2,-1036.6,-764.78,-948.9,-1344.4,-1433.7,-1227.4,-1032.8,-137.63,1006.9,1876.9,2978.8,2791.6,1971.5,806.97,-568.98,-1637.2,-2022.3,-715.9,769.68,-15.921,-1951.6,-3002.7,-3613.7,-4082.1,-4152.4,-3108.2,-1409.2,-1213.4,-1829.8,-2603,-3953.5,-5818.9,-6951.2,-6671.5,-7083.5,-8384.1,-9843.6,-10229,-8934.2,-7031,-5888.3,-4836.6,-3460,-2138.4,-1074.5,-779.57,-986.79,-1826.8,-2526.9,-3414.1,-5342.7,-7960.2,-10894,-13461,-14044,-13462,-11511,-10101,-9581.5,-8868.7,-8248.3,-7841.8,-6940.8,-7029.2,-8577.3,-9377.6,-9160.9,-9353.4,-11149,-13466,-14364,-14091,-12744,-11523,-10377,-8775.8,-6463.8,-5256.1,-5280.5,-5490.7,-6030.4,-6370.5,-5838.6,-5027.9,-5086.4,-6416.2,-6966.8,-5231.8,-3896.1,-2894.4,-1053.1,-91.135,-18673,-25435,-29673,-30633,-28381,-23352,-16578,-8996.1,-1576.7,4621.5,8490.5,10512,11213,11105,9762.1,6468.4,1472.8,-3725.7,-7911.4,-10193,-9991.7,-7447.7,-2882.7,3189.7,9466.4,15377,20048,22678,23133,22202,20943,19278,16893,13849,11328,10045,9974.4,11846,15150,18730,22370,26403,30542,33442,34645,34685,34510,33849,32755,31466,30776,30005,28905,28473,29090,30491,32510,34652,36682,38313,39277,39592,39184,38124,37564,38366,39943,41400,41817,41327,40669,40309,40303,40221,39860,39269,38472,37705,36962,36021,34834,34438,35675,38413,41610,44161,45159,44178,41868,38803,35235,31431,27871,24820,22593,20885,19523,19117,20897,25263,31278,37174,41176,41848,39164,34132,27812,20275,12626,5921.4,740.85,-2671.8,-4826.1,-5726.2,-4969.2,-1614.1,5620.2,15354,23609,27714,26998,21702,13383,3616.7,-6482.2,-15943,-23347,-28780,-32741,-34216,-33403,-30033,-22374,-10987,259.29,8073.1,10326,7135.8,-562.57,-13110,-29266,-43396,-53085,-60493,-64931,-65170,-64793,-63685,-59810,-50170,-32573,-14131,-2964.1,-456.17,-4915.3,-15661,-29479,-46058,-64878,-80631,-89966,-95117,-97962,-97410,-92509,-82412,-63906,-40550,-20329,-10131,-10618,-19207,-35569,-56217,-77703,-97928,-1.1038e+05,-1.1649e+05,-1.2074e+05,-1.2336e+05,-1.205e+05,-1.0951e+05,-92126,-70814,-48108,-27133,-13851,-12515,-22982,-40708,-57720,-78010,-99534,-1.1284e+05,-1.1962e+05,-1.2453e+05,-1.2185e+05,-1.1197e+05,-96502,-74085,-45651,-16434,5257.2,13848,7566,-8717.9,-29399,-52317,-78409,-1.0151e+05,-1.1301e+05,-1.1215e+05,-1.0538e+05,-99364,-93367,-81776,-59833,-27172,3677.4,26145,44314,45690,29112,10422,-15904,-47160,-69547,-78295,-79834,-78301,-69005,-48493,-17238,25890,69217,98161,1.1276e+05,1.1609e+05,1.0458e+05,78955,49982,21538,-6032.1,-29205,-40665,-38138,-26014,-7616.6,21599,61356,1.112e+05,1.5708e+05,1.8814e+05,2.0466e+05,2.0045e+05,1.7801e+05,1.4335e+05,1.0458e+05,71632,54970,48386,42496,44710,63888,94970,1.2384e+05,1.5275e+05,1.873e+05,2.218e+05,2.4813e+05,2.5681e+05,2.4277e+05,2.1643e+05,1.8661e+05,1.5697e+05,1.3439e+05,1.2119e+05,1.1926e+05,1.265e+05,1.3849e+05,1.5351e+05,1.7188e+05,1.9689e+05,2.2813e+05,2.6377e+05,2.9136e+05,3.0626e+05,3.1145e+05,3.0528e+05,2.8315e+05,2.4668e+05,2.0158e+05,1.6094e+05,1.4001e+05,1.3438e+05,1.4048e+05,1.6197e+05,1.9273e+05,2.3029e+05,2.7895e+05,3.2664e+05,3.5848e+05,3.7338e+05,3.6616e+05,3.3677e+05,2.9881e+05,2.6457e+05,2.3395e+05,2.0365e+05,1.7959e+05,1.7304e+05,1.8058e+05,1.9307e+05,2.0112e+05,2.0664e+05,2.2403e+05,2.5472e+05,2.9695e+05,3.4273e+05,3.7861e+05,3.9514e+05,3.8583e+05,3.4745e+05,2.8096e+05,2.0071e+05,1.373e+05,89754,46949,2158.2,-1.0355e+05,-2.6997e+05,-5.0948e+05,-9.0278e+05,-1.5325e+06,-2.2617e+06,-2.8371e+06,-3.1837e+06,-3.2938e+06,-3.0862e+06,-2.539e+06,-1.8582e+06,-1.2357e+06,-7.0811e+05,-3.0335e+05,-86224,-8741.5,13461,6185,-2008.8,11098,24731,1.018e+05,2.5714e+05,3.7019e+05,4.1931e+05,4.2809e+05,3.9849e+05,3.378e+05,2.7579e+05,2.2948e+05,1.8419e+05,1.4998e+05,1.2378e+05,88887,72283,82731,1.0592e+05,1.4302e+05,1.786e+05,2.0397e+05,2.2142e+05,2.2025e+05,1.9414e+05,1.5334e+05,1.2084e+05,96557,89843,95391,94689,1.0143e+05,1.2951e+05,1.651e+05,2.0221e+05,2.3958e+05,2.7272e+05,3.0463e+05,3.2518e+05,3.2569e+05,3.1059e+05,2.7669e+05,2.3559e+05,1.9098e+05,1.4597e+05,1.1301e+05,93736,86067,86216,92836,1.0808e+05,1.4296e+05,1.9093e+05,2.2886e+05,2.5771e+05,2.6899e+05,2.6023e+05,2.3829e+05,2.017e+05,1.6302e+05,1.2561e+05,1.0263e+05,84067,71507,69672,75492,88304,1.0801e+05,1.3726e+05,1.7368e+05,2.0771e+05,2.2302e+05,2.2153e+05,2.1025e+05,1.8237e+05,1.4264e+05,99747,57532,27036,13045,13285,18481,27757,41138,60163,88154,1.159e+05,1.3095e+05,1.3265e+05,1.2287e+05,99697,70493,43646,13620,-17935,-41968,-53254,-57861,-59084,-56481,-44399,-16674,15706,41610,60805,66952,57613,35957,10591,-15473,-41111,-61799,-74970,-80876,-83793,-83101,-77724,-64004,-46078,-21931,3566.2,21641,25494,14241,-4798.6,-28944,-56466,-83592,-1.0731e+05,-1.2267e+05,-1.2692e+05,-1.2369e+05,-1.1532e+05,-1.024e+05,-83893,-59973,-36515,-17455,-8438.4,-9628,-22233,-45949,-70019,-90983,-1.0913e+05,-1.2216e+05,-1.2779e+05,-1.2714e+05,-1.2167e+05,-1.1253e+05,-99203,-81291,-59889,-39068,-23880,-17589,-19104,-27912,-41081,-55064,-69970,-83672,-93024,-98877,-1.0161e+05,-1.0074e+05,-91630,-75369,-53514,-32447,-18497,-10430,-9568.7,-15316,-26939,-43047,-58722,-72761,-82736,-86798,-85091,-78993,-71789,-65729,-58266,-45420,-30157,-17561,-9639.3,-6095.4,-9226.6,-15026,-20476,-24423,-28411,-35280,-40397,-41645,-41542,-43646,-45789,-38010,-19550,349.22,14230,19357,18938,17431,12652,2867.5,-8730,-17696,-19214,-15265,-11360,-8488.1,-4229.7,1874.1,11726,23436,29809,30036,29481,28834,26329,23321,20459,17935,15429,14005,15069,17619,20797,25742,32292,38738,43621,46410,48018,48261,47217,45310,42577,38606,34620,34112,34684,35726,37752,40323,42832,44533,45587,45362,43493,42555,43332,44764,46276,48490,49980,49826,49457,49564,49604,48577,47874,46929,42877,36073,29586,28625,32787,35660,36957,37208,35991,34166,32622,31902,32812,34156,34925,33890,31178,27228,22993,20345,19978,19924,19571,19080,16074,14669,19050,26848,31637,31081,26868,22137,18685,15491,9426.4,1460.6,-6266.3,-11694,-14175,-14239,-11234,-6336.6,-385.97,5461.7,9537.9,10066,8635.2,7258.9,4400.4,-457.31,-6396.4,-13911,-21206,-25820,-28230,-27619,-23921,-18813,-13190,-6742.5,-1998.5,-105.23,353.32,-230.51,-2414.8,-6189.7,-12490,-21370,-30140,-36708,-40001,-40136,-37087,-31264,-24850,-17889,-11312,-7321.5,-6460.5,-7113.1,-7968.8,-10474,-15889,-24239,-34294,-43251,-49062,-51941,-50573,-44621,-36541,-27844,-18657,-10709,-6011.1,-5067.2,-5296.2,-5273.6,-8900.9,-18221,-26216,-32279,-36938,-38422,-36991,-34933,-32871,-27950,-22900,-21547,-19711,-17010,-14309,-12151,-11244,-12872,-18114,-26092,-34965,-42006,-45131,-44039,-39302,-31721,-22408,-12422,-4218.4,-29.588,1050.3,602.56,-540.41,-2405.2,-5759.5,-11709,-19699,-27644,-33204,-34482,-31985,-27728,-22557,-15399,-7389.7,-1193.3,2308.6,3695.8,4221.1,4208.3,3014.5,-912.12,-7461,-14837,-21201,-24999,-25727,-23979,-18997,-10528,-546.07,7737.1,12925,15974,17925,18917,18332,16381,11397,3119.1,-5272.1,-12357,-15931,-14898,-10359,-3173.6,4707.5,12482,18790,22852,25087,25601,24987,23644,21002,16564,10631,4757.5,684.87,-667.92,-79.368,2406.6,7644.5,14479,21148,26883,31405,33686,32380,29314,26613,23099,17220,11088,6016.8,3758.5,3750.9,5876.2,9446.9,12777,16326,20962,25026,26908,26134,23518,19480,16316,14556,11570,7545.2,5102,5061.6,6165,7024.4,9669,14009,18186,20668,21683,22784,23430,22953,21284,19723,17194,12612,7935.3,4328.6,2851.7,2306.6,2998.5,5736.8,9192.3,11631,13403,14338,12018,8332.3,6202,5497.9,5531.7,5142.8,4485.4,3902.9,3011,2938.3,3453.7,4011.9,3696.6,2474.3,2495.5,2439.5,1819.3,2386.9,3710.8,4183.2,3767.4,3246.3,2824.3,2822.4,2653.7,2084.5,895.38,-281.17,-1528.2,-2435,-3130.5,-3754.3,-3754.7,-3798.5,-4086.2,-4189.6,-4948.4,-6826.4,-7302.3,-5355.7,-3338.2,-2919.5,-4160,-4629.5,-3813.8,-4375,-7918.7,-12192,-15168,-17388,-18635,-18522,-17627,-16420,-14538,-11660,-7615.3,-4488.5,-2868.2,-2543.7,-3114.2,-6174.4,-7929,-9393.9,-13145,-18448,-23569,-25658,-24636,-23040,-21547,-19769,-18617,-18519,-16747,-13404,-12487,-13936,-15632,-17243,-19300,-21262,-23726,-25417,-25484,-24715,-23448,-21255,-17908,-13719,-9695.1,-6862.2,-5590,-5716.6,-7307.4,-10814,-15300,-18418,-20972,-23747,-25599,-24411,-21228,-18086,-13653,-7493,-2728.2,298.31,2109.2,2944.8,3301.9,1623,-2624.7,-9855.7,-16392,-18475,-18198,-18817,-17321,-13667,-10186,-6822.9,-2834.9,3261.5,7903.7,7522,4065.5,1328.2,-1144.1,-4548.1,-7961.3,-10408,-10455,-9839.6,-10058,-10872,-10697,-9284.2,-5649,138.78,6245.6,10877,13331,13073,10921,7507.5,3515.8,-911.69,-4262.2,-6333.5,-7497.5,-7085.8,-5256.6,-2266,1968.7,8222.4,15327,20513,22375,21033,18166,15194,11779,7161.9,2276.3,-579.68,-1733.6,-1539.9,-475.71,407.7,2021.5,5776.5,11252,17348,22001,24544,25472,24219,20405,15838,10748,6831.7,5180,4792.7,5354,6581.9,7440,8610.3,12239,16931,21489,24882,24758,21355,16315,11752,8595.6,5349.3,2401.2,2594.6,3148.8,3119.9,3302.7,3518.4,4102.6,6959.5,11170,15782,20029,22591,22807,20509,16549,11004,5785.8,2364.4,-693.63,-3887.5,-5976.1,-6537.4,-5817.3,-4351.4,-988.35,3753,8248.6,12025,14509,14558,12591,9375.1,5138,1053.5,-1279.4,-2765,-4276.4,-5309.3,-4888.2,-3131.8,-159.29,2204.9,3713.2,4906,4868.8,2404.6,-536.58,-1628.7,-3140,-5751.3,-7929.4,-7942.9,-6700.9,-5837,-6231.9,-6319.2,-5979,-5480.1,-4188.7,-2052.7,-1425.6,-2959.8,-5207,-6995.2,-8258.8,-9619.2,-10886,-11081,-11103,-11676,-12322,-12642,-12418,-12181,-11399,-9995.5,-9012.7,-8487.2,-8442.8,-7897.8,-8009.9,-9773.2,-11320,-11354,-10277,-10622,-11343,-10987,-10463,-9991,-9416.7,-9125.9,-9833,-10724,-9985.7,-9580.4,-10449,-10897,-10198,-9644.3,-9738.7,-10068,-10935,-12553,-13675,-13774,-13564,-14025,-14519,-14658,-14125,-12623,-11782,-12074,-12523,-12532,-11834,-9917.7,-7604.5,-6847.4,-6822.7,-6788.6,-7328.2,-8254.4,-9429.7,-11088,-12279,-12664,-12113,-10862,-9376.4,-7876.8,-6000.8,-4100.9,-1859,-260.56,855.85,983.13,250.41,-1108.3,-3503.9,-6504.9,-9211.5,-11111,-10964,-9987.4,-8269.4,-6176.1,-3804.5,-820.05,1340.7,2609.4,2975.8,2755.7,2541.5,2489.9,2371.5,1803.7,642.85,-1050.6,-3099.7,-4451.8,-3957.2,-2356.5,-295.89,2191,4053.3,5689.8,7077.8,8254.8,8883.8,9027.2,9058.5,7765.8,5262.1,2691,954.9,-8.5284,-520.26,-479.3,839.85,3723.6,7078.3,9428.2,10764,11674,11424,10563,10558,10724,9643.3,7731.2,4972.3,1161,-865.94,-1369,-1704.8,470.4,4731.4,9148.2,12814,14466,13512,12928,13424,13439,10774,5750.4,342.39,-2743,-2905,-1104.6,1086.4,3716.5,6831,9549.1,11857,13508,14005,12972,11373,9964.9,8515.2,6476.2,3480.8,161.3,-2591.8,-3724.9,-3354.3,-2124.1,-137.66,2645.4,5724.1,8407.6,9976.7,10500,11048,11675,12354,11949,9253,4735.3,-150.09,-3300.5,-4887.8,-5500,-4937.6,-2926.3,-16.686,2846.3,5178,6456.1,6663.8,6435.5,6314.2,5350.3,3311.6,130.59,-3426.9,-6562.4,-8447.1,-9086.4,-8333.1,-6687.4,-4774.9,-2217.9,399.28,1881.9,2800.2,3974.5,5448.6,6463.8,6304.1,4208.9,-589.89,-6254.1,-10309,-13486,-15601,-14887,-11797,-7346.5,-2872.7,130.92,2588.8,4819,4775.4,2453.9,-711.23,-4153.8,-7126.2,-10150,-13036,-15598,-17109,-17416,-16437,-14465,-11921,-11247,-13136,-14227,-12853,-9918.1,-7099.7,-5464.1,-5018.1,-5214.1,-7284.8,-10247,-12383,-15350,-17290,-16386,-15024,-13405,-12070,-12074,-11844,-10256,-8398.6,-7414.3,-8941.1,-10851,-13038,-16244,-18325,-19005,-19356,-18339,-15978,-13740,-11374,-9288.2,-8106.6,-6330.8,-4346.9,-3169.7,-2085.9,-1332.4,-1801.8,-1275.4,-1327.9,-1283.1,-1178.2,-1400.7,-1617.4,-1481.3,-1370.4,-1510.9,-1574.7,-1688.7,-2097,-2403.6,-2324.7,-2284.3,-2222.1,-2081.2,-2047.8,-1988.2,-1868.1,-1959,-2148.1,-2118.5,-2028.9,-1942.6,-2157,-2302.5,-2366.1,-2501.8,-2541.8,-2268.8,-2068.2,-2015,-2098.4,-2099.2,-1869.7,-1892.9,-1995,-2177.9,-2462.2,-2381.4,-2284.6,-2197.5,-2278.7,-2245,-2272.3,-2260.8,-2281.3,-2136.3,-1865,-1801.3,-1850.9,-1892.4,-1955.6,-2210.4,-2303.1,-2043.6,-2067.5,-2233.4,-2605.5,-2879.2,-2863.9,-2757,-2696.5,-2652,-2529.7,-2445.1,-2337,-2208,-2006.7,-1984.7,-1762.9,-1539.9,-1545.5,-1610.9,-1902.8,-1961.6,-1709.6,-1509.8,-1663.1,-1825,-1904.8,-1716.6,-1319.6,-1091.6,-997,-1036.9,-863.51,-559.87,-919.55,-1350.1,-1485.3,-1739.5,-1909.5,-1762.7,-1590.2,-1244.4,-1336,-1529.5,-1466.6,-1346,-1301,-1264.3,-1006.6,-473.7,-291.04,-518.2,-883.03,-1172.7,-1327.4,-1518.7,-1415.6,-1034.4,-629.18,-446.02,-258.49,-269.13,-595.46,-962.44,-1007.2,-854.23,-756.08,-610.28,-694.24,-817.04,-967.28,-1101,-835.34,-695.82,-757.9,-831.74,-603.64,-408.36,-216.98,-219.09,-542.35,-897.2,-901.56,-648.21,-197.91,232.21,-101.76,-584.39,-654.15,-542.83,-398.72,-357.64,-364.73,87.034,1126.9,1285.7,843.03,193.8,-430.32,-722.6,-538.54,-269.16,-270.64,-236.31,-417.61,-757.54,-816.4,-453.84,-111.7,-43.677,-69.017,-71.537,-46.651,-46.673,-389.4,-742.94,-867.26,-818.14,-633.23,-653.26,-638.96,-461.1,-391.78,-373,-333.72,-241.96,-103.61,66.456,184.83,97.753,-421.33,-880.44,-929.02,-806.97,-817.1,-1031.9,-1281.4,-1522.8,-1346.9,-894.32,-422.84,-233.11,-342.4,-788.78,-1238.9,-1856.8,-2210.6,-2337.2,-2281.4,-2253.6,-2156.1,-1947.1,-1728.9,-1667.8,-1424.2,-1152.5,-1078.7,-934.41,-908.11,-1068.9,-1234.8,-1248.7,-1213.5,-1299.9,-1484.7,-1652.8,-1744.9,-1655,-1560.2,-1852,-2076.5,-1963.2,-1704.4,-1547.8,-1232,-1130.6,-1560.1,-1993.1,-2190.7,-2175.6,-2279.9,-2365.2,-2316.4,-2517.6,-2513.5,-2234.4,-2173.9,-1898.5,-1968.6,-2350.4,-2099.6,-1132.4,-1032.2,-1259.8,-1406,-1428,-1271.2,-1282.5,-1752.3,-1876.3,-2004.2,-2397.8,-2544.1,-2398.6,-2036.1,-1735.3,-1651.1,-1506.8,-1523.6,-2053.9,-2551.1,-2957.2,-3442.3,-3479.6,-3188.4,-2735.1,-2630.3,-2626.5,-2408.1,-2230.6,-2305.3,-2249.9,-2254.1,-2431.6,-2611.3,-2423.8,-2308.2,-2368.1,-2507.7,-2756.1,-2809.3,-2882.1,-2951.3,-2912.5,-2980,-2671.7,-2221.8,-1845.3,-1820.2,-1763.1,-1846.5,-1932.3,-2022.3,-2321.6,-2615.5,-2714,-2707.5,-2742.1,-2738.8,-2535.1,-2495.3,-2468,-2451.8,-2350.8,-2164,-1836,-1745.9,-1862.7,-1737.9,-1696,-1913.9,-1889.6,-1810.6,-2116.5,-2452.6,-2394.9,-2256.4,-2427.7,-2533.8,-2289.5,-1884.9,-1416.4,-1109.5,-915.28,-949.93,-936.22,-1192.4,-1324.4,-1202.6,-989.85,-772.83,-611.65,-536.18,-467.39,-672.4,-1142.1,-1164.7,-670.66,-333.89,-394.14,-540.69,-777.11,-571.18,236.42,344.04,54.265,129.25,154.61,204.65,447.69,1164.8,1265.6,1054.5,1307.1,1573.9,1622.1,1267.8,803.11,797.7,1015.4,936.6,866.43,824.11,669.47,635.46,968.38,1053.5,565.44,254.76,483.09,1160.3,1452.6,1474.6,1341.8,878.12,502.75,202.3,-222.03,-305.71,-303.14,-235.07,93.714,612.96,1089.8,708.65,490.13,971.37,1415.9,1200.2,560.18,93.206,-319.29,-561.86,-504.22,-287.26,-212.48,50.958,242.08,110.64,-535.02,-1133.2,-1268,-1028.5,-583.23,135.84,469.38,271.52,-66.1,-250.26,-550.61,-1171.6,-1635.4,-1662.6,-1338.6,-674.96,-241.86,-329.96,-618.26,-901.91,-818.38,-544.88,-689.6,-1038.4,-1229.3,-1557.5,-1936.4,-2186.4,-2494.8,-2551.9,-1371.5,-696.23,-768.25,-548.2,-431.92,-593.28,-724.11,-883.5,-1145.6,-1344.2,-1490.9,-1680.3,-1913,-1933.4,-1843.7,-1983.6,-2454,-2762.8,-2709.5,-2569.4,-2648.9,-2798.5,-2784.5,-2740.5,-2809.5,-2670.5,-2542.8,-2711.9,-3048.6,-3350.1,-3407.3,-3506.1,-3840.4,-4010,-3479.2,-2943.3,-2966.5,-3356.3,-3951,-4102.1,-3684.5,-2684.3,-2298.7,-2966.1,-3790.8,-4214.8,-4456.9,-4613.9,-4694.6,-4643.5,-4450.3,-4159,-3990.7,-3850.9,-3911.1,-3676.8,-3478.6,-3732.6,-4579,-5260,-5433.4,-5121.2,-4916.1,-5043.4,-4815,-3336.5,-612.4,846.98,719.83,-551.79,-2829.9,-4000.5,-3799.6,-2982.5,-2556.9,-2614.5,-2882.4,-3146.6,-3389.6,-3502.8,-3388.8,-3433.1,-3612.9,-3711.4,-3376.9,-3018.3,-2759.8,-2483.1,-2306.8,-2364.4,-2490.9,-2589.1,-2689.4,-2766.7,-2781.3,-2719.7,-2847.7,-3333.1,-3460.8,-3186.4,-2977.7,-2720.6,-2108,-1058.6,-315.58,-389.52,-857.34,-1516.7,-1867.2,-1759,-1672.8,-1688.4,-1842.1,-1954.1,-1842.8,-1466.6,-887.53,-410.1,-167.82,-78.07,-105.75,174.48,524.09,447.05,175.63,-470.16,-985.08,-1307.4,-1300.6,-733.19,527.51,913.65,800.08,1160.8,1833.8,1636.7,1009,913.99,1100.7,773.4,155.76,-324.72,-539.63,729.21,2232.5,2971.2,4447,7174.2,8110.3,5877.2,3702.6,3397.3,4151.2,5040.5,6369.7,7819.7,6408,2362.9,-360.59,-992.75,-518.78,381.99,1037.6,1006.7,921.78,1061.6,2205.3,3825.6,4100.6,3629.7,3253.1,3106.3,3098.5,2915.1,2337.7,1629.5,1190.9,1400.7,1755.4,2367.9,3328.9,3485.2,2852.3,2422.7,2322.1,2123.5,1942,2049.7,2351.8,2269.4,1964.2,1576.1,813.71,167.03,-177.33,-370.8,-372.42,-269.9,-64.578,230.06,202.11,106.23,183.45,220.63,463.8,1366,2334.2,1811.5,279.85,269.55,479.73,-370.97,-1082.1,-1480.9,-1630.4,-1375.6,-1039.7,-1050,-930.08,-1013.1,-2411.1,-3714.6,-3632.3,-3484.8,-4060.4,-4436.3,-3312.9,-1467.3,-2211.2,-4578.8,-5784.6,-5343.2,-3787.4,-2745,-3468.8,-4667.8,-4631.9,-4254.1,-4683.4,-4854.3,-5141.3,-5879.7,-5944.7,-5235.3,-4742.6,-4694.6,-4983.9,-5302.5,-5365.9,-5340.8,-5673.6,-7099.5,-8809.1,-9659.8,-8966.8,-7043.5,-5436.3,-4491.5,-3592.7,-2829.4,-3030.3,-6418.8,-9597.2,-9227.1,-7657.9,-6885.9,-6892.8,-7266.5,-7894.4,-8638.5,-8946.4,-8866.8,-8882.2,-9619.1,-11113,-12348,-12908,-11657,-9824.2,-9494.7,-9919.2,-10197,-9907,-8453,-8466.4,-8990.8,-7984.6,-6915.6,-5663.2,-4438.7,-5305.5,-8585.6,-12502,-13991,-13730,-11232,-8963.9,-6544.8,-6676.8,-9746.8,-13801,-16096,-18780,-20604,-17188,-14502,-11811,-8925.1,-6951.7,-6839.7,-9024.2,-8892.2,-6563.2,-5478.3,-4948.9,-5102.4,-7252.8,-9736.3,-9751.9,-6981.1,-4054.2,-6565.7,-9511.4,-8712.8,-3943.1,682.1,-728.83,-1319.9,3122.4,12023,20710,25315,28458,30740,27811,18409,6418.3,-4886.7,-7987.2,-884.23,11550,23777,36280,45229,46670,43828,36443,26174,16709,7998.4,2881.8,3100.1,11953,23254,31317,34420,33867,38647,41408,41964,43718,38998,38060,43048,44407,31388,15145,7038.8,4486.5,4419.3,6867.6,12826,15872,9654.6,6329.1,10293,13797,15331,14384,14047,16418,17231,20792,21771,16399,6576.5,-2877.1,-1370.2,6449.8,9265,7896.2,8332.6,5208.9,-4303.6,-12925,-19418,-28607,-33598,-31814,-26383,-12565,4393.8,11838,10130,4376,-9778.2,-30705,-51937,-67554,-63271,-53405,-52421,-45483,-42294,-58564,-66197,-51709,-35861,-26599,-20820,-24342,-40845,-62854,-74018,-74457,-76135,-82718,-89052,-90748,-94709,-1.0107e+05,-98300,-82749,-64704,-51460,-36293,-20048,-10767,-5113.8,-3742.2,-8233.4,-7009.2,-7066.7,-12190,-7951,9576.6,29046,40192,48257,52291,45185,36521,32634,31738,35335,41594,56392,70559,79279,83920,84123,82119,78439,68947,55443,48924,48520,43124,34869,30824,29988,31389,30846,31679,23958,11456,6300,-1413.3,-11729,-15263,-11973,-8927.9,-7003.8,-6865.9,-11331,-18327,-24154,-29048,-28007,-20936,-14959,-10640,-7496.2,-3693,-1036.5,-1052.5,-3749,-5784.1,-5616.1,-5876.1,-7119.6,-10934,-12824,-13285,-13519,-12446,-10589,-8093.7,-5025.7,-3750.4,-4899.6,-5241.4,-4977.5,-5273.9,-5515.4,-6370.6,-7788.3,-9031.3,-10193,-9015.2,-6694.6,-4801.8,-2327.5,-1670.8,-2120.3,-2611.8,-2107.6,-767.41,265.74,1400.9,3627.9,5722.9,5826.2,3255.3,282.46,-1148.9,275.59,3257.2,5554.3,6872.1,6173,4360.8,3479.4,3972.7,2951.6,165.44,476.09,3772,6353.1,6296.2,5475.4,5388.8,4850.2,4572.5,5378.6,6172.1,6845,8926,8082.8,3915.3,2759.8,4560.2,4858.2,4626.4,5357.9,6432.6,6104.8,5660.4,5059.5,2348.9,-767.6,-2490.8,-3892,-4905.2,-5160.7,-4470.9,-4280.1,-5447.9,-6349.2,-5282.5,-3832.9,-3384.5,-4316.8,-3731.3,-2045.3,-2049.6,-2933.6,-4235.2,-6393.2,-7662.1,-7463.2,-7174.3,-7327.8,-7253.8,-6966.5,-6260.7,-4589.3,-3358.1,-3240.1,-3829.1,-4906.1,-5822.6,-4878.1,-4733,-5680.7,-6793.5,-6840.2,-6709.5,-6215.9,-5403.8,-5222.5,-5664.6,-5901.9,-5685.2,-6032.6,-6772.5,-7585.5,-8121.4,-7661.1,-6403.3,-5517.2,-5310.2,-5433.1,-6246.4,-7146.1,-6740.8,-6292.1,-5880.4,-5098.6,-4955.3,-6189.7,-7912.9,-8773.5,-8636.4,-8424.3,-8296.3,-8403.5,-8650.4,-8776.5,-7903.1,-6043.1,-2717.2,1466.7,4304.7,5026.2,4280.5,2904.4,1088.4,-2276,-6165.7,-8709.6,-9204.8,-7511.5,-5647.5,-5719.7,-6007,-5362.2,-4359.2,-3382.6,-3613.5,-5740.4,-7253,-6892,-5519,-4413,-3268.1,-2960.6,-4424.7,-5929.6,-6506.9,-7144.5,-7813.3,-7236.4,-4735.7,-2326,-1009.9,-268.4,735.35,1801,3837.9,6075.4,6189.9,4119.8,1249.4,-208.53,2198,6126.2,8128,9219.5,10603,10971,13718,18743,19559,16246,13567,13527,13433,11466,8330.1,6093,3793.6,939.91,-1601.9,-3458.8,-3769.9,-3290.5,-4138.3,-6249.2,-8473.8,-8145.8,-4065.9,-476.5,1834.7,3636.4,6321.8,12544,18941,23027,24679,25547,27336,27608,21244,10150,2035,-540.56,797.23,2049,4529.9,9931.8,13615,11914,4201.9,-6853.2,-17103,-18374,-8213.6,-515.68,-2988.1,-6939.7,-7501.1,-5119.3,-3650.9,-5543.4,-9747.1,-14854,-18736,-20378,-20302,-17788,-15071,-14291,-13946,-13759,-14793,-16807,-18028,-18451,-17518,-15141,-12136,-8721.7,-5147.8,-1882.6,-50.94,334.33,312,454.5,-58.577,-837.64,-956.02,-4370.5,-8860.9,-10780,-9896.3,-5352.6,4743.5,15138,20519,20498,15820,10301,7947.6,7510.7,4695.4,-2760.4,-9949.9,-9598.7,-2906.8,1673.3,-20.654,-6446.6,-12540,-15724,-17992,-22639,-28648,-30291,-23926,-12499,-1045.8,7173.1,7818.7,2660.7,-1578.3,-437.81,1943.7,4881.4,6065.2,2523.3,-1111.4,-4690.5,-6698.6,-3838.2,609.91,5515,10907,15641,15298,13261,12362,10575,5601.5,-2894.6,-7584.1,-5118.7,-1664.1,1052.3,-201.24,-4817.1,-5704,-2864.3,-458.04,-871.27,-1039.4,1131.6,2695,6149.5,9818,12745,17421,20611,18067,13033,8266.1,3942.9,-1721.8,-5418.6,-5534.3,-2102.8,3477.4,8357.1,8462.6,5782.4,5455.7,5698.3,2544.5,-1782.3,-1821.4,-1656.5,-6075.7,-8595.9,-7592.7,-5435.5,-3865.9,-3004.5,-4471,-8213.5,-11079,-12034,-14563,-15939,-13338,-8893.3,-5056.6,-5832,-10610,-12221,-9508.5,-6377.8,-4770.5,-4082.9,-3019.1,-3720.2,-4863.7,-6490.4,-10539,-12435,-10194,-7551.2,-5248.2,-4693,-5782.6,-5579.4,-5397.5,-6423.5,-6868.7,-5777.7,-5308.1,-8214.6,-12178,-12115,-6332.3,-4174.1,-5501.5,-6892.9,-3866.9,1268.5,3807.9,4803.2,6428.1,11847,17434,16787,11228,6248.4,1840.3,-1419.2,-2623,-4699.3,-10282,-13419,-9576.6,1020.3,11953,11983,4908.3,-1108.9,-5859.5,-8359.9,-13091,-16590,-14454,-8982.5,-5123.8,596.52,8198.4,12794,10982,5410,-164.62,-2907.9,-2003.6,303.04,3248.7,6942.5,11761,14954,15082,8018.6,-2743.3,-6277.8,-6884.3,-5590.7,-2203.1,954.36,3335.4,2635.5,1023.5,605.57,822.69,1954.3,2575.8,4011.8,6159.1,-1588.9,-1705.9,-1823.7,-877.86,195.75,259.44,-404.83,-873.79,-1341,-1740.6,-1681.8,-1502.4,-1663,-1870.1,-1802.8,-1868.1,-2180.6,-2465.9,-2947.9,-3096.3,-2684.3,-1468.4,137.75,1859,3009.2,2851.4,1653.1,258.26,-785.58,-1980.2,-2884.8,-3218,-3234.8,-2944.5,-2514.6,-2375.7,-2611.6,-2396.4,-1057.2,790.81,666.43,-126.57,-107.29,-269.71,-136.87,-374.24,-2263.1,-4604.9,-5194.4,-4172.1,-2977.9,-2698.8,-2889.2,-3100,-3072.7,-2872.1,-2820.2,-2872.7,-2895.6,-3312.3,-3533.2,-3492.1,-3594.3,-2548.7,-735.09,-800.66,-1722.3,-2163.7,-2475.2,-2567.3,-2231.6,-2139,-2309.2,-2588.1,-3217.5,-3303,-3157.7,-3609,-3559.2,-2911.7,-2055.3,-834.08,207.02,-399.66,-2108.2,-2856.3,-2858.2,-2854.6,-2904.7,-2739.6,-2248.6,-2349.2,-2873.6,-3084.2,-3039.1,-2616.6,-1953.8,-896.63,107.09,34.182,-1070.3,-1671.1,-2155.5,-2681.5,-2533.3,-1700.8,-1445.4,-2104,-2801.9,-2942.8,-2915.7,-2569.7,-2110.6,-1821,-977.89,1086,2476.9,2046.7,1679,1387.9,775.95,-712.39,-3091.4,-4918,-5204.3,-4271,-3654.6,-3774.8,-3592.4,-3163.1,-1471.6,1470.7,2028.2,975.95,354.66,-201.86,-550.02,-135.18,1291.7,3533.5,4931,4911.3,4639.5,4434.7,3074.6,723.26,-1354.6,-3849.1,-6075.8,-5870.1,-3808.6,-2057.1,-1362.6,-1735.8,-1932.5,-1428.1,-924.61,-598.52,-869.82,-1473.7,-1667.7,-1480.7,-875.51,-343.61,-208.61,-99.143,129.87,713.75,565.87,-724.52,-1732.1,-1491,-569.29,-332.24,-394.43,-623.68,-677.89,-457.67,72.151,681.62,1411.4,2258.9,1983.9,981.93,1135.6,1273.4,1180.4,1334.4,1831.2,911.57,-1762.7,-3821.4,-3365.9,-2466.2,-1751.4,-1004.2,-530.28,-572.43,-499.61,-204.44,-140.38,-248.93,-395.54,-647.25,-762.96,-642.18,-179.7,30.256,-377.72,-1232.5,-1593.7,-1297.6,-812.58,-831.71,-1397.6,-1656.8,-1391,140.58,2099.9,2921,2934.5,863.87,-1371.5,-1478.6,-1215.7,-1265.8,-1174.3,-857.36,-404.15,-427.15,-833.99,-1161.3,-1565.3,-1863.9,-1852.7,-1786.3,-1617.3,-999.6,282.56,614.89,-767.1,-2037.9,-2295.4,-2142.8,-1832,-1601.9,-1940.5,-2495.4,-2774.1,-2219.3,-1976.7,-1920.8,-730.73,291.97,-1074,-1852.4,-935.2,-517.52,-788.25,240.89,1630.6,1477.5,-2.522,-2666.3,-5123.9,-5946.3,-5386.2,-4211.4,-3592.1,-3640.3,-4117.4,-4276.5,-4136.9,-3728.5,-3342.2,-3175.1,-3051.6,-2924.1,-2975.2,-3060.1,-3328.8,-3824.6,-4004.6,-3898.4,-3817.9,-3136.4,-1750.5,-1457.8,-2086,-2599,-2733.3,-2681.3,-2761.9,-2868.1,-3039.3,-3213.9,-3046.8,-3020.2,-3060.8,-3041.7,-3188.2,-3306.2,-3376.4,-3632.6,-3462.2,-3091.5,-3080.3,-3508.2,-3607.3,-3051.5,-2503,-2108.3,-1496.5,-502.76,-580.3,-2881,-4488,-4654.3,-4984.4,-5579.8,-5707.9,-5142.2,-3538.5,-1399.7,-682.44,28.435,271.11,-737.67,-2407.6,-3212.1,-3012.9,-1963.6,-1464.1,-1765.9,-1548.9,-742.47,-228.85,-1262.1,-2375.8,-2153.1,-1732,-1537.5,-1323.1,-1273.8,-1422.2,-1264.8,-962.61,-403.39,524.4,1168.6,1448,1878.7,2216.6,2044,1190.5,-960.06,-3281.3,-4234.5,-3699.1,-2384.4,-971.98,-96.932,428.89,635.16,487.89,357.57,362.9,145.1,-294.11,-791.59,-1071.5,-914.5,-707.29,-582.39,-350.11,988,2656.9,2386.9,1089.2,223.81,47.583,182.15,170.78,-81.362,209.15,912.13,1381.8,2028,2069.5,1681.3,1256.7,-26.597,-427.03,1349.4,2130.5,2042.9,2129.7,2027.4,1700.7,1398.1,1054,643.19,149.32,-148.04,-10.789,545.97,1080.9,1356.7,1385.4,1260.9,1057.3,972.92,839.57,927.26,1357.9,1328.5,935.26,573.39,357.32,603.46,1639.9,2051,540.42,-227.81,-53.198,-0.23032,-159.21,-283.94,5.0325,384.02,1068.9,1597.7,1189.3,640.89,96.771,-256.17,-538.68,-678.52,-417.84,-8.1659,72.183,-193.15,-179.22,-29.243,-92.114,-153.02,-90.47,-99.426,-290.54,-729.7,-1184.1,-1615.8,-1757.9,-1219,-531.89,-32.578,20.964,-395.15,-647.04,-1431.7,-3770.8,-5850.2,-5988.2,-5131.6,-4093.5,-3387,-3020.9,-2811.9,-3186.4,-4874.9,-5940.3,-4560.6,-2736.8,-1840.6,-2216.9,-2893.7,-2938.3,-2216.2,-1132.5,-1375.3,-2538.8,-2813.9,-2530.8,-2699.7,-3623.2,-4251.3,-4362.6,-4155.5,-3856.4,-3841.3,-4434.6,-5809.5,-7009,-7066.6,-6202.7,-5058.6,-4209.8,-3920.8,-3707.4,-3426.8,-3028.3,-2915.2,-4697.5,-5795,-5358.2,-4542.5,-4057.5,-4278.7,-4440.4,-4562.6,-4424.9,-4334.7,-4136.9,-3769.6,-3576.4,-3421.2,-3493.7,-4060.5,-4673.2,-4793.4,-4551,-4578,-4566.2,-4272.3,-4078,-4222,-4546.9,-4672,-4826.5,-5152,-4763.1,-4709.9,-4573.8,-4121.5,-3992.6,-2757,-1565.5,-1530.3,-2792.1,-3803.6,-3069.5,-1860.5,-1837.1,-2162.2,-2168.5,-2293.8,-2395.3,-2440.6,-2316.8,-1951.5,-1915.8,-1981.1,-2004.8,-2099.4,-2883.2,-3446.2,-2809.5,-1356.2,-289.51,-319.23,-516.4,-542.38,-473.18,-332.56,-91.888,32.716,-197.33,-372.27,-305.39,-70.183,207.79,355.99,318.61,-26.509,-297.71,-321.36,397.2,1442.5,1339.6,845.96,810.46,1156.9,1254.6,877.65,973.48,1491.2,2861.3,4018.7,3255.8,2080.4,1420.1,1280.4,1693.9,1803.8,2109,2497.1,3268,4867.9,5586.5,4364.3,3141,2923,2631.7,2426.8,1841.5,1245.4,940.76,1843.9,3687.8,4325.4,3599.2,3045.3,3247.7,3465.8,4116.8,4283.6,2701.5,886.27,1247,2876.9,3611.9,2537.4,1540.9,1330.8,2792.3,2394.5,1427.5,2182.5,5280.1,6393,2907.3,296.08,995.06,1739.7,1072.7,-352.18,-226.62,174.77,925.53,3815.5,7400.3,7203.5,3285,-1640.4,-6086,-7596.9,-7281.5,-4139.6,659.95,4346.9,5306.4,3291.8,1986.1,1883.7,2188.2,2281.4,2020.7,1548,1469.6,1565.2,1526.6,1472,1175.3,669.88,17.417,-506.74,-953.61,-1301,-1325.1,-1334.4,-1447.4,-1525.2,-1505.5,-905.94,1253.8,2293.2,837.8,-919.32,-1421.4,-1622.1,-2775.8,-4286,-4880.9,-4274.7,-3749.3,-3405.2,-3498,-3527.8,-3382.9,-3438.6,-3757.2,-3994.3,-4275.5,-4235.3,-4268.5,-4596.3,-5290.3,-6107.1,-6941.2,-7444.9,-7754.8,-7679.1,-7665.6,-7795.8,-7782.1,-7663.3,-7383.3,-7137.4,-7301.6,-7862.1,-8433.4,-8180.7,-7712.1,-8510,-9553.1,-9470.1,-9198.1,-8690.8,-6498.3,-4970.8,-6313.4,-7883.3,-8028.3,-7950,-7767.6,-7526.5,-7400.3,-7084.9,-7607.8,-9396.5,-10219,-11187,-11303,-9812.8,-7751.5,-7478.4,-8799.9,-10348,-13177,-17281,-18977,-18349,-19764,-17983,-12532,-10111,-9221.2,-5082.5,-5243.6,-4613.6,-1991.1,-3274.7,-5878.7,-7142.2,-6262.1,-4998.5,-5440.6,-5620.4,-4491.3,-3496.5,-3648.9,-2774.9,-888.16,-1849.7,-4662.3,-6411.5,-6861.3,-5874.6,-3721.2,-2682.6,-1959.9,703.21,4345.4,5082.5,3213.2,1703.8,1037.9,-190.19,-2829.3,-3906.8,-3184.8,-2601.5,-2155.4,-1648.6,-862.94,-421.66,-434.92,277.88,1424.7,2841,3280.6,3430.6,4298,5111,5677.2,4946.9,2993.8,1940.1,2809.8,5328.3,9108.6,13272,15585,15650,15643,16726,16199,13348,12035,11718,11592,11716,12620,13450,13147,13816,16431,19385,21603,24011,25392,23692,20178,15863,12372,11999,15630,21505,26696,28696,28421,27252,24787,22968,20088,14463,10876,13262,17911,24691,29527,27022,21203,20781,22742,19305,13981,9079.5,4808.5,3063.7,2640.3,1461.7,3686.1,8431.6,9314.9,-680.59,-10421,-9098.5,-855.65,114.9,-5807.3,-5635.7,-3585.1,-2074.7,-290.78,-68.354,-1804.3,-3863.1,-6538.5,-7318.7,-8396.9,-10557,-15130,-23238,-28051,-30781,-32322,-32514,-28414,-23513,-26658,-34046,-41849,-51509,-59980,-65606,-67951,-63044,-59562,-59183,-58479,-53447,-43148,-33522,-27865,-29867,-33449,-31964,-25944,-20474,-14221,-7956.6,-6694.3,-7160.9,-6035.1,-6818.2,-6603.3,-3949.9,302.35,1296.2,-448,-1612.6,-2639.6,-4676.9,-5744.8,-7237.3,-4377.5,-4994.4,-7706.4,-12270,-19542,-17615,-12531,-10673,-6478.7,1384.7,2811.2,-7421.2,-14365,-15919,-17290,-17375,-10245,-1259.6,5329.6,11865,13236,10437,5247.9,3907.6,10177,15647,17651,15207,13668,15516,18222,21774,24229,26870,29203,28341,19292,8941.8,8819.1,14759,17678,17269,17968,17618,15751,19194,28502,37483,42896,38362,19224,-6359,-15582,-546.84,18581,31004,34443,31803,24510,15026,5430,-3347.5,-7021.7,-7277.4,-7401.1,-7857.8,-6759.4,-1577.7,3100,5646.9,5131,5116.3,5564.8,3399,673.93,-636.95,-998.99,-5280.3,-12281,-18285,-19916,-15945,-8792,-1136.9,4725.2,7894.4,8619.8,10065,7503.9,3501.8,3585.6,1411.4,-2864.2,-3741.6,-1492.3,-969.88,-2334.8,-3660.9,-3183.3,-410.74,2705.5,6327.1,10489,12806,12733,9711.4,5263.3,385.91,-2664.1,-2655.5,-2129.4,-2965.3,1281.6,6376.8,6807.7,2905.3,-3488.4,-7038.4,-7270.6,-9835.4,-13823,-12480,-8349.5,-3544.8,-648.62,-922.1,-128.87,1009.2,1034.3,-405.55,-3314.1,-5391.5,-6188.1,-7477.2,-8626.8,-8754.2,-7915.3,-5869.9,-5142.3,-5373.8,-5891.6,-6521,-6843.9,-6497.3,-3854.1,594.57,2964.2,4101.4,4783.1,5524,7979.9,10619,9942.4,2739.3,-10393,-21758,-23612,-18717,-13958,-10659,-7648.3,-4896.9,-2985.8,-4166.4,-6357.3,-6939.6,-5695,-4255.3,-4939,-6891.3,-8033.3,-7303.9,-6019.7,-4975.9,-4402.9,-4641.6,-5643.1,-4663.1,-1891.4,1718.3,5259.1,4217.5,-484.5,-4073.1,-5455.3,-5014.7,-4231.2,-3989.6,-3680.9,-3908.1,-4710.9,-5582.1,-6675,-7861.1,-8470.5,-8476.5,-8695.1,-9086.3,-9098.5,-7789.8,-5498.9,-4184.2,-6198.4,-9693.9,-11641,-11919,-11398,-10799,-10834,-11392,-11083,-10014,-9363.3,-8957.2,-8922.6,-10617,-13495,-12613,-9189.8,-7273.3,-7404,-7880.3,-8415.8,-8730.1,-8579.8,-8259.3,-8082.7,-7608.2,-7722.7,-7513.7,-6660.3,-5813.4,-5832.2,-7439.1,-8110.1,-6223.9,-3709.2,-3977.2,-5962.7,-8269.2,-8632.5,-8343.2,-8711.4,-8864.3,-7809.6,-6727.4,-5532.1,-3800.1,-930.37,1815.2,2448.2,1068.1,-326.35,-1121.3,-1248.7,871.83,4694.8,7222.4,8356.4,9624.8,11183,13020,12472,9423.4,5932.3,2784.6,1507.8,1447.3,735.36,1032.1,3659.2,6708.7,9201.9,10876,11633,12156,13253,14511,15858,16196,15836,15517,15594,15944,15705,14893,15137,16084,18146,21300,25472,30041,31612,29263,23553,13946,7339.8,6090.6,7849.5,9165.3,8175.7,8166.1,13848,21934,23777,18291,14666,12872,6108.6,54.867,173.04,2290.4,3042.6,3843.9,5779.9,7849,9431.5,10767,12166,12790,12286,12383,13614,12935,11208,10331,8962.2,6265,2904.4,-1778.9,-8950.7,-16954,-20831,-18809,-14149,-11621,-10296,-9531.3,-10153,-10913,-12505,-16580,-18930,-17175,-13383,-10858,-9143.4,-8570.9,-6410.5,-2236.3,-6395.6,-17472,-24133,-25074,-22693,-19516,-17650,-17660,-18625,-19078,-18807,-18762,-20097,-20522,-18129,-15195,-12594,-11028,-9876.5,-9377.8,-11237,-13461,-14907,-16007,-16550,-16013,-14277,-11948,-11136,-13849,-20406,-24202,-21282,-16587,-10937,-5667,-2789.3,-2768.8,-7659.6,-15623,-20237,-20856,-18717,-15783,-11539,-6044.8,-1685.3,-2526.5,-11610,-20421,-22363,-20872,-17738,-14750,-12462,-11320,-11014,-10035,-7622.8,-3263.7,-104.23,1322.2,3527.4,7471.9,13679,17886,16354,6839.3,-6422.9,-13710,-14269,-11150,-3583.7,4569,9787.1,11915,9767.2,5586.7,4679.6,4428.8,2560.2,1196.6,1630.3,5164.7,9427.1,11979,13235,13662,13331,12712,12486,12504,12697,12616,11903,10836,9800.8,9981.1,11124,12326,13540,14214,14654,14717,14454,13974,13003,12178,11905,11492,10866,9979.9,8843.9,8308.2,8506,8965,9445,9993,10795,11717,12263,10408,6422.8,3336,2229.1,3089.3,4221.4,4481.4,5206.5,7773.5,11159,12080,8655.1,2724.8,-1878.8,-1622.3,-1499.8,-1456.3,-1515,-1646.3,-1736.5,-1770.2,-1899.4,-2268.6,-2611.2,-2595.1,-2283.8,-2075.9,-1954.9,-1753.6,-1567,-1484.9,-1491.8,-1631.7,-2023.3,-2246,-2235.1,-2260.8,-2273.7,-2330.5,-2526.5,-2405.7,-2379.7,-2589.6,-2718.3,-2580.4,-2296.7,-2205.9,-2299.6,-2234.6,-2129,-1636.4,-745.53,-602.88,-1062.6,-1418.3,-1839.2,-1998.6,-2123.6,-2216.5,-2154.6,-1895.3,-1640.3,-1526,-1315,-1000.3,-805.42,-805.56,-1098.8,-1329.1,-1383.3,-1564,-1488.1,-1478.2,-1499.9,-1741.4,-1972,-1899.6,-2049.9,-2026.7,-1788.6,-1327.6,-1122.4,-786.67,-359.59,-115.8,87.975,214.99,6.2465,-863.04,-1584.8,-1769.3,-1517.8,-1190.9,-1515.1,-1871.1,-1737.6,-1344.2,-997.13,-675.54,-563.22,-796.53,-996.75,-800.66,-274.95,305.91,633.29,396.12,-157.12,-446.66,-736.68,-1097.8,-1293.5,-1289.5,-1073.9,-635.5,-93.563,84.728,-98.002,-153.71,-64.636,42.966,142.62,119.43,-268.44,-630.33,-733.45,-779.79,-566.31,-373.05,-275.38,128.05,429.24,138.86,-381.18,-572.53,-397.13,-92.582,122.28,206.88,46.084,-144.65,-393.2,-610.7,-683.6,-837.25,-762.91,-605.19,-438.57,-152.03,-21.927,-232.68,-550.75,-615.09,-615.62,-716.31,-808.63,-910.19,-1205.2,-1477.6,-1718.9,-1945,-1965.2,-1812.5,-1515.1,-990.61,-948.56,-1212.1,-1353.8,-1271.1,-929.62,-734.15,-681.53,-501.54,-544.66,-562.11,-670.97,-1251.9,-1746.5,-2307.7,-2488.8,-2020.7,-1288.6,-907.91,-911.3,-842.77,41.02,482.28,41.327,-588.24,-985.44,-1033.1,-878.58,-848.1,-1062,-1348.5,-1911.9,-1882.7,-1420.7,-1063,-1171.4,-1416.8,-1507,-1354.8,-1269.9,-1235.2,-1429.2,-1568.7,-1657.4,-1655.1,-1736.6,-2023.7,-2200.8,-2469,-2470.3,-1849.8,-1655,-2032.1,-2269.9,-2317.8,-1999.1,-1517,-1244.7,-1288.4,-1427.1,-1523.4,-1811.1,-2213.8,-2617.2,-2842.1,-2716.1,-2328.1,-2147.9,-2138.4,-2372.9,-2665.1,-2363.5,-1778.1,-1636.9,-1839.2,-2081.9,-2128.1,-1931.1,-1759,-1982.8,-2563.6,-2964.7,-2965.9,-2744.9,-2895.6,-2902.7,-2861.9,-2827.5,-2832.2,-2916.1,-2720.1,-2466,-2191.8,-1962.6,-1878.4,-2236,-2716.1,-2919.5,-3316.4,-3558.8,-3449,-3121.4,-3055.1,-3061,-3179.3,-2897.5,-2520.5,-2500.4,-2426.2,-2266.3,-2195.1,-2453.2,-2415.1,-2387.1,-2278.5,-1720.5,-959.15,-976.16,-1370.5,-1741.6,-2187.8,-2200.7,-2036.1,-1881.1,-1581.8,-1336.8,-1118,-1170.9,-1170.9,-1170.4,-1421.7,-1770.1,-1842.6,-1621.2,-1544.1,-1598.1,-1688.7,-1798.1,-2024.3,-2131,-1918.2,-1504.4,-852.47,-360.49,-186.2,-98.677,-78.909,-265.67,-396.74,-669.62,-1064.2,-1141.1,-1238.9,-1317.7,-1196,-899.52,-624.99,-296.1,97.759,434.61,607.88,904.05,968.31,865.77,561.68,238.29,-260.75,-775.88,-1068.8,-934.68,-645.26,99.455,572.83,912.77,1319.5,1582.9,1531.7,1286.7,955.77,927.88,1149.7,686.76,171.64,73.494,14.815,-152.98,-338.31,-456.54,-313.88,-293.97,-302.62,-14.998,439.43,896.13,1416.4,2118.3,2304.7,1962.7,1376.7,711.37,211.88,-102.31,137.42,317.03,400.75,201.35,-388.08,-505.44,171.21,728.37,1069.5,1145.3,1142.1,1043.9,956.09,555.1,-92.755,-636.53,-853.86,-951.77,-1039.9,-1437.6,-1839.3,-2101.4,-1908,-1597.3,-1269.2,-862.65,151.17,405.82,100.62,-123.85,-669.87,-1400.9,-1869.1,-1619.4,-1086,-984.53,-1388.6,-1924.3,-2055.2,-1829.6,-1678.7,-1519.9,-1528.6,-1484.3,-1263.3,-916.88,-727.12,-1271.7,-2277,-2655.4,-2258,-1795,-2060,-2536.2,-2976.3,-2998,-2635.5,-2362.7,-2185.6,-1940.4,-1627.4,-1379,-996.18,-775.48,-1262.6,-1855.5,-1989.2,-2176.8,-2550,-2738.7,-3067,-3554.9,-3630.9,-3465.7,-3326.4,-3293.7,-3175.3,-2939.7,-2606.1,-2324.1,-2809.2,-3804.4,-4242.9,-4069.7,-3272.2,-2031.4,-2338.2,-3586.4,-4316.2,-4224.7,-3968.8,-4043.8,-4173.6,-4069.6,-3564.1,-2903,-2605.2,-2932.5,-3676.9,-3966.6,-3627.8,-2948.9,-2769.6,-3551.7,-4395.7,-4458.4,-4155.1,-4041.4,-3958.9,-3793.1,-3272.8,-2519.3,-2123.5,-2379,-3026.7,-3433.4,-3665.7,-3661.1,-3415,-3168.1,-3222,-3272,-3197.1,-3141.2,-3396.6,-3874.7,-3754.2,-2849.8,-1793,-1537.3,-1699.8,-1921.9,-2285.3,-2294.4,-1785.7,-1726.4,-2237.1,-2846.1,-3166.4,-3169.6,-2947.1,-2818.9,-2848.2,-2352.5,-1426,-526.9,187.06,16.037,-491.48,-259.86,473.26,770.57,140.02,-697.71,-1101.8,-1318.8,-1294.8,-1426.9,-1600.1,-1865.6,-1778.6,-1350.6,-1033.9,-1069.9,-563.55,-255.13,-1796.8,-2956.9,-2934,-1152.5,1567.1,2401.6,2146.2,1666.7,1409.2,1596.6,1604.3,710.93,-183.18,24.252,446.7,871.43,1986.5,2765.7,2952.3,2433.1,1715.3,1266.9,876.32,506.34,355,106.9,-126.72,449.75,1496.4,2392.1,3029.5,3098.5,2760.1,2583.1,2842.5,2946.9,2645.7,2373.7,2002.8,1611,1370.5,912.56,373.4,346.97,741.02,1401.3,1985.4,2264.6,2315.3,2511.6,3225.5,3652.7,3408.8,2850,2478.2,1984,1492.9,986.74,511.23,462.08,770.97,1194.4,1708,1905.7,1721.5,1606,1943.5,2437.6,2651.1,2874.2,3069.8,2832.1,1928.3,689.49,-649.64,-2039.3,-3009.1,-3553.2,-3373.3,-2267.6,-1923.7,-985.49,-312,-866.73,554.48,2270.2,1061.9,-624.67,-815.47,-622.93,-1993.1,-3049.5,-2625.3,-1098.8,-829.64,-2046.8,-3008.6,-1009.3,2251.2,4146.3,4157,2305.7,703.91,326.84,416.5,402.67,-7.8375,-842.32,-2059.4,-3128.4,-3596,-3563.6,-3535.9,-3406.5,-2243.5,-1011.3,-429.84,-700.98,-1149.5,-1614.8,-2707,-3951.3,-5048.3,-6825.7,-5882.4,-5633.3,-9690.8,-11835,-9804.1,-7812.6,-5952.8,-4966.4,-6017.5,-7741.2,-8164.9,-9113.5,-8429.4,-4566.4,-2274.3,-3786.2,-6160.5,-5431.5,-3182.2,-2429,-2555.8,-3363.7,-2965.7,-2423,-2871.5,-3866.2,-4388.8,-5616.5,-7228.7,-7197.4,-5807.8,-5141.2,-5355.6,-6249.5,-7545.3,-8643.1,-9351.6,-9791.8,-10660,-11859,-12288,-9760.5,-6321.5,-5019.2,-5796.2,-7491.7,-8859.1,-8988.9,-9404.5,-10649,-12479,-13635,-10685,-9193.5,-12387,-16462,-18340,-15520,-13018,-12097,-10323,-11916,-14975,-14980,-8091.5,-4647.7,-3696.7,-1210.4,-4810.1,-10134,-13244,-16786,-14330,-11458,-10952,-8069.1,-4362.4,-5699.6,-10409,-9078.6,-4548.9,-1162.6,625.22,956.49,1532.3,2811.6,350.31,-5424.8,-8493.5,-7259.8,-7841.3,-11671,-11793,-7398.2,-160.45,9605.9,15793,12564,9968,10250,8611.7,7132.1,8137.4,9229.5,7757.3,5578.9,7076.9,10303,14245,15780,13800,11632,11423,14907,20466,26637,32501,34943,30385,25462,24386,23188,20037,16420,21557,26816,26789,24524,24795,30170,33215,34344,41580,47560,45563,42329,42277,40254,36925,36845,39345,45726,46132,37318,22849,10327,6940.8,12419,22350,35014,50527,65709,75839,80505,73561,61003,45315,27097,14224,6704,5535.9,11581,21316,32880,43035,48697,47667,39791,28883,21183,14310,2258.7,-11339,-31123,-54956,-76267,-97680,-1.1503e+05,-1.1395e+05,-1.2836e+05,-1.8195e+05,-2.3035e+05,-2.5197e+05,-2.7447e+05,-2.6937e+05,-2.4434e+05,-2.0163e+05,-1.4987e+05,-1.1173e+05,-94802,-80679,-67706,-62292,-50947,-32262,-8277,5688.6,877.02,-9.0625,15159,18435,7250.5,5304,-2476.1,-23544,-38199,-41940,-37865,-28992,-20828,-16787,-21865,-30204,-31642,-27426,-23856,-20656,-20111,-18074,-21832,-37606,-37362,-14517,6533.3,20088,26368,34847,52448,70541,83234,93879,99332,92983,81112,67660,58619,56556,65443,79537,82459,70189,61276,62262,61444,58871,57546,54471,52597,56605,65204,64270,56478,47711,44680,44539,44912,47388,50056,51967,54542,53533,44889,33624,25976,19727,11542,8318.8,7542.1,4531.8,-1755.9,-9819.1,-15277,-15102,-15188,-14908,-16973,-19483,-19564,-20951,-22967,-22305,-21815,-21443,-18610,-15689,-10571,-7497.7,-11623,-19273,-23949,-24765,-23159,-24323,-27778,-30598,-29752,-25600,-23775,-22576,-20829,-18915,-16529,-15423,-15046,-13748,-12487,-11550,-11946,-14288,-14483,-14259,-16992,-19401,-19925,-18949,-15618,-10265,-5929.9,-3328.4,-1088.8,1194.5,2761.3,2450.6,917.7,-158.79,-1380,-4894.9,-7895.8,-9092.9,-8989.7,-10289,-11678,-11190,-9166.6,-6529.1,-4003.1,-2597.4,-2019.5,-1166.1,1479.2,4482.2,4265.3,1438.8,-2513.3,-7935.8,-12866,-14584,-13067,-10539,-9840.4,-10302,-9773.1,-6185.5,-3564.6,-3066.3,-4216.9,-5426.2,-5864.4,-6330.9,-7243.6,-8687,-10166,-10679,-9963.4,-7714.1,-4214.9,8.4809,3868,6482,7884.4,7972.2,6370.2,5799.6,4481,2458.6,312.83,-2250.9,-6061.1,-11349,-16048,-16450,-11206,-4631.5,-272.25,2612.4,4604.4,5204.4,4090.2,1856.1,23.511,103.97,3747.8,12380,24574,37367,43793,39835,27726,14336,2689.4,-6182.8,-9924.6,-8336.3,-5097.2,-4528.7,-7869,-11273,-13931,-14713,-15422,-16546,-16823,-13984,-10253,-6692.4,-5225.8,-7154.7,-9148.8,-9791.2,-11586,-12201,-11092,-9226.1,-8087.2,-8979.5,-11332,-13231,-15194,-17628,-18592,-15701,-10532,-4923.6,-298.59,1025.7,130.31,72.844,182.11,-416.74,117.3,679.84,-723.67,-4497.7,-8369.2,-11337,-12918,-11276,-6975.9,-1199.8,4195.6,7574.1,9321.3,11083,10807,9372.5,8007.8,7244.3,9628.1,13040,9728.3,6723.9,11654,24987,42905,52517,51213,39027,23974,10489,2858.1,1232.4,-1423.2,-4923.3,-2519.5,1402.7,-119.59,-5440.5,-7692.4,-4291.9,725.92,6645.4,13069,12975,5758.2,-2966.2,-10578,-17359,-21165,-17869,-9985,-2079.1,5098.7,14082,21086,25925,28435,23972,14027,3049.1,-4946,-9778.1,-15906,-22409,-25188,-24183,-22902,-21044,-18831,-13799,-7291,-5289.3,-9202,-15308,-19116,-16979,-8644.1,709.64,6936.1,10674,15000,20027,22382,15255,2517.4,-5229.7,-1844.6,2612.4,2104.6,2548.1,5033.8,2974.9,-3877.6,-9580,-13567,-13781,-13165,-10855,-6964.4,368.17,8294.3,13985,15970,18259,18342,7366.3,-6133.6,-12056,-10321,-4490.3,6666.8,25462,42557,45470,29992,4143.8,-16103,-23391,-25322,-27121,-25929,-21336,-16394,-12434,-8279.5,-7905.1,-13872,-19759,-22682,-19948,-11375,-4467.9,1121,9135.4,11846,2627.3,-3928.8,-762.6,3217.2,3225.1,3038.6,746.8,-9956.8,-21440,-23042,-23783,-25677,-22516,-15981,-10287,-6617.4,-5153,-6117.7,-7820.3,-9397.2,-9806.5,-8706.9,-7480.8,-9851.7,-12135,-11967,-10783,-7931.5,-3678.8,2417.2,7506.5,8593.4,7068.7,4259.8,2297.7,1675.9,-1221.2,-4602,-5633.1,-8445.6,-12698,-10441,-6318.6,-3067.9,-1282.5,-601.26,10.097,1447.5,60.576,-3863.6,-6000.4,-6872.3,-7563.2,-5624.6,-3262.2,-4300.4,-4800.4,-3392.2,-2238.7,-2814.1,-2059.6,221.21,-90.633,-63.181,494,771.38,925.3,880.62,1290.2,-593.92,-4465.1,-6343.5,-5132,-2022.4,1287.1,5490,9927.4,11174,9521.9,6996.1,6134,6111.5,5797.1,7050,8524.3,7440.5,6147.9,6306.5,8449.5,11298,11478,10925,11922,13243,13279,11098,8644.6,8631.2,10190,8852.8,5068.8,3143.1,2409.6,2391.6,2906.8,3667.9,3939.7,4444.6,5783.4,6333.7,5902.5,5153.7,4594.7,3146,1219.2,-198.25,-898.65,259.62,2740.1,4793.7,5484.7,3206.4,206.7,-2372,-2971.9,-3005.6,-3772,-4831.4,-5260.1,-4049.4,-1208.7,46.28,-701.41,-1475.4,-2047.7,-2782.3,-2522.5,-487.33,249.87,-871.38,-1627.3,-2180.9,-2863.4,-4189,-6084.4,-6190,-4954.3,-2979.5,-1713.4,-2182.2,-2972.3,-1778.2,475.09,612.73,-96.765,-592.18,-1278.7,-2243.8,-3300,-4698.1,-6934,-8438.3,-7834.9,-5685.6,-4019.3,-2671.7,-1210.8,-59.672,-1166.5,-4830.1,-6079.8,-4679.9,-3226.3,-2517.7,-1935.1,-1941.2,-1712.4,-2048.4,-3957,-6240.6,-6160,-4123.1,-3263.6,-1758.2,-2568.8,-1759.1,-800.65,-799.38,-1925.3,-3327.6,-3990.5,-3898.4,-2692.5,-183.2,3705.5,8583.2,11891,11325,7264.1,3125.7,869.93,665.62,1801.9,2569.8,1977.7,661.6,-534.38,-1125,-653.99,1512.2,5209.7,9824.4,14292,16615,15791,11860,6967.5,3759.9,3504.2,5303.2,6710.8,6200.1,4465.3,3160.8,2875.7,3689.2,5533.5,8601.5,12954,17518,19945,18317,13547,8246,5329.8,5372.4,6581.8,7007,6346.3,4705.6,3740.5,3814.4,4696.7,6580.9,10614,16262,21032,22149,18501,11911,5618.2,2735.4,3207.6,4539.1,4493.9,3660.4,2749.2,2227.6,2589.2,3636.2,6077.6,10520,15942,19467,18576,13403,6281.6,1021.2,-496.28,297.99,1407.8,1443.5,431,-417.05,-510.34,-186.74,876.71,3888.2,8814.5,14023,16368,13647,7210.4,341.08,-4120.7,-5316.1,-4424.5,-3647.5,-4038.8,-4966.3,-5673.8,-6000,-5519.9,-3959.8,-702.55,3907.6,8224.6,9161.7,5253.1,-1293,-6861.9,-9813.8,-10369,-9690.1,-9547.7,-10232,-10966,-11277,-11256,-11066,-9490.5,-5994.5,-1371.9,2841.1,3922.4,-434.08,-7927.5,-14073,-16459,-16127,-15223,-15054,-15193,-15107,-14958,-14640,-14052,-12478,-8739.5,-4213.9,-2007.7,-3911.6,-9194.3,-15237,-19040,-20144,-19425,-18447,-17977,-17681,-17172,-16430,-16077,-15689,-14079,-10617,-7038.5,-5839.1,-8149.1,-13189,-18118,-20563,-20367,-18888,-16851,-15009,-14571,-15402,-16090,-15729,-14529,-12653,-9662.5,-6995.5,-6619.9,-9003.9,-12947,-16203,-17601,-17292,-16067,-14746,-13295,-11920,-11074,-10702,-10766,-10513,-9030.6,-6720.7,-4969.2,-5053.6,-6816.4,-9329.3,-11347,-12188,-11711,-10180,-7517.1,-4668,-2834.1,-2101.1,-2417.2,-2927.3,-3160.7,-2713,-1502.7,-479.61,-92.456,-471.15,-1065.6,-1681.7,-2473.1,-2375.1,-747.84,2217.4,4868.2,6009.9,5992,5128.4,4100.5,3091.9,2653.1,2941.9,4062.9,5515.9,6459.1,6346,5739.5,5778.2,6713.3,8461,10561,12741,14265,14457,13182,11046,8589.7,6600.7,6080.7,7716.7,10409,12565,13339,13048,12801,13779,16120,18436,19952,20533,19776,17501,13743,9500.4,6884.2,7622.6,10991,15231,18217,18687,17152,15774,16911,19362,21426,22818,22862,21212,17840,12738,7146.4,3813.7,4790.9,9477.9,15043,18749,19309,17628,16448,17189,19378,21568,22278,21120,18254,13120,6167.3,-421.21,-3117.8,-531.27,5978.4,12381,15498,15066,13214,12455,13677,15603,16699,16363,14492,10589,3741,-4987.9,-11948,-13174,-7339.8,1478.6,8072.5,10097,8553.7,6475.9,6126.8,7418.4,8803.7,8887.4,7542.1,4714.1,-344.44,-8776.9,-18610,-24738,-24167,-16910,-7270.5,93.759,2089.2,-216.91,-2856.3,-3463.6,-2700.5,-2161.9,-2621.1,-3657,-6222.6,-11631,-20301,-29724,-35543,-33904,-24831,-14170,-7768.5,-7276.9,-10076,-11857,-11568,-10493,-10452,-11378,-12820,-15927,-22729,-32880,-42068,-45162,-39975,-29505,-19492,-13168,-12628,-15193,-16620,-16072,-15420,-15731,-16604,-18834,-24154,-31963,-40987,-47939,-47616,-39018,-26719,-17441,-14484,-16248,-18559,-18841,-17999,-17272,-17175,-17656,-19686,-24634,-33018,-42264,-46983,-43221,-32275,-20191,-12636,-10904,-12388,-14061,-14278,-13608,-13226,-13063,-13163,-14917,-19988,-27851,-35227,-36878,-30530,-19022,-8210.3,-2463.2,-1883.4,-3406.2,-4324.2,-4395.3,-3969.8,-3929.4,-4146.1,-4230.7,-5819.8,-10023,-16180,-21025,-20569,-13498,-3425.7,4851.6,8841.7,9004.1,9030.7,9565.3,9690.5,9280.6,9759.2,10579,9695.1,6881.8,2460.1,-2362.5,-4055.2,-756.16,6967.9,15715,22015,24399,23815,22710,21797,20830,19961,19818,20897,21819,20556,16974,13481,13988,18803,24782,29490,32926,34385,34991,35661,33835,30338,28782,29272,30625,32374,32788,31327,29652,29450,31263,34581,38116,40292,40007,37834,34675,31223,28339,28063,30611,33949,37167,38794,38186,37208,36354,35630,35596,36247,37166,37147,34852,30762,26204,22752,21310,22963,27585,32611,36526,38414,37305,33062,28348,25892,25546,25939,25114,21615,16164,11154,7858.6,6486.3,7972.1,12875,20615,28622,31878,28874,20884,11334,4548.8,2559.7,3260.9,2102.6,-4342.5,-14256,-21705,-24285,-23881,-17365,-5395.6,8762.6,22725,30076,20579,-618.73,-18707,-26221,-26818,-26839,-28457,-32403,-37750,-39383,-40067,-41709,-40235,-30338,-12567,2528.3,4122.5,-8069.7,-27913,-46028,-51487,-53055,-55520,-55559,-58511,-64651,-69978,-70680,-66042,-56661,-40620,-21450,-9513.5,-13335,-32781,-57942,-74409,-77353,-77092,-81467,-84816,-84701,-83402,-82523,-76700,-65203,-45302,-24692,-13805,-16837,-30744,-52629,-75031,-88074,-88098,-81496,-80724,-87516,-97474,-1.0277e+05,-98863,-91853,-80238,-57289,-27257,-4590.2,-1340,-21470,-57849,-86028,-97541,-98432,-86548,-78730,-82901,-85285,-84622,-79181,-69271,-52870,-25649,7185.6,30097,28852,2857.2,-32774,-58973,-66576,-60252,-51459,-48143,-50522,-54549,-54988,-50034,-38079,-14907,18031,53381,76663,73025,49160,20616,5426.3,5061.3,7593.1,3073.8,-1053.7,-1411.3,-1930.4,1428.3,9779.8,26318,55232,94212,1.2929e+05,1.4217e+05,1.227e+05,82994,47057,32890,40673,55628,62049,60175,57634,57983,64684,79414,1.0617e+05,1.468e+05,1.9293e+05,2.2856e+05,2.3992e+05,2.2522e+05,1.9789e+05,1.7946e+05,1.7479e+05,1.8252e+05,1.9195e+05,1.9324e+05,1.8561e+05,1.801e+05,1.7727e+05,1.7641e+05,1.8561e+05,2.2432e+05,2.9636e+05,3.7835e+05,4.2119e+05,3.9437e+05,3.1597e+05,2.318e+05,1.7996e+05,1.7417e+05,1.8284e+05,1.8795e+05,1.8637e+05,1.7574e+05,1.6903e+05,1.7414e+05,1.8274e+05,2.0866e+05,2.6232e+05,3.2682e+05,3.7911e+05,3.9858e+05,3.7274e+05,3.1661e+05,2.5487e+05,2.0012e+05,1.6275e+05,1.6197e+05,1.601e+05,1.1551e+05,29915,-76828,-2.1328e+05,-3.8603e+05,-5.017e+05,-7.015e+05,-9.3178e+05,-1.0144e+06,-9.4053e+05,-7.1396e+05,-4.6714e+05,-2.172e+05,18065,2.12e+05,4.2627e+05,6.5226e+05,7.9564e+05,8.2163e+05,7.7672e+05,6.2345e+05,3.5343e+05,-12374,-3.777e+05,-6.4852e+05,-7.7753e+05,-8.2739e+05,-8.6486e+05,-9.0714e+05,-9.8468e+05,-1.1871e+06,-1.5638e+06,-1.8839e+06,-1.8684e+06,-1.5606e+06,-1.2322e+06,-9.6926e+05,-6.9176e+05,-3.9261e+05,-1.549e+05,-65245,-45521,58196,1.5965e+05,1.7189e+05,1.6756e+05,1.9765e+05,2.4868e+05,2.943e+05,3.1295e+05,3.4113e+05,4.2298e+05,5.3362e+05,6.3825e+05,6.9795e+05,6.6469e+05,4.8623e+05,1.657e+05,-1.3178e+05,-1.8529e+05,-31431,1.6015e+05,3.3072e+05,4.5183e+05,5.1774e+05,5.2468e+05,4.7398e+05,3.9488e+05,2.9397e+05,1.8652e+05,95763,62410,1.0661e+05,1.943e+05,2.8559e+05,3.6759e+05,4.2876e+05,4.4781e+05,4.1238e+05,3.45e+05,2.7633e+05,1.9143e+05,64601,-97546,-2.8689e+05,-4.9008e+05,-6.4849e+05,-6.9003e+05,-6.2514e+05,-5.3852e+05,-4.629e+05,-3.9909e+05,-3.4605e+05,-3.0321e+05,-2.7457e+05,-2.4946e+05,-1.9427e+05,-1.1559e+05,-55757,-27948,585.74,36083,46421,18427,-5691.7,-2644.3,19952,57752,88341,98214,73997,27623,2728.5,17821,54319,99105,1.3493e+05,1.5364e+05,1.6623e+05,1.6826e+05,1.5112e+05,1.3894e+05,1.5536e+05,1.8799e+05,2.0914e+05,2.0509e+05,2.038e+05,2.206e+05,2.5812e+05,2.9319e+05,3.1396e+05,3.0681e+05,2.7012e+05,2.224e+05,1.8385e+05,1.4978e+05,1.264e+05,1.259e+05,1.56e+05,2.0631e+05,2.6487e+05,3.1171e+05,3.2102e+05,2.878e+05,2.241e+05,1.4846e+05,92462,64407,43663,33296,35711,52300,74974,91648,96174,87648,71483,53706,32512,-1516.7,-47878,-88782,-1.0494e+05,-90853,-65387,-40785,-25278,-31841,-50795,-66247,-73888,-61494,-28948,10714,19498,-11507,-54256,-94535,-1.2099e+05,-1.3279e+05,-1.3035e+05,-1.2757e+05,-1.3761e+05,-1.4044e+05,-1.3458e+05,-1.2837e+05,-1.1867e+05,-1.1027e+05,-1.0637e+05,-96728,-85169,-85852,-1.0345e+05,-1.3251e+05,-1.5691e+05,-1.6756e+05,-1.6477e+05,-1.5654e+05,-1.5032e+05,-1.4922e+05,-1.5412e+05,-1.5701e+05,-1.5895e+05,-1.5957e+05,-1.591e+05,-1.4726e+05,-1.1922e+05,-84430,-60508,-56967,-71455,-97848,-1.1835e+05,-1.1668e+05,-1.0737e+05,-1.091e+05,-1.1569e+05,-1.1353e+05,-1.0668e+05,-1.0027e+05,-95477,-89858,-81517,-61988,-31035,-1787.7,4168.1,-14674,-44361,-67250,-66500,-48289,-29718,-15805,1088.7,24490,39877,36899,16148,-4562.8,-11301,-382.03,22813,48171,61257,63604,62488,58477,57292,51478,41772,38329,40758,47844,62955,77963,88301,1.007e+05,1.0752e+05,1.0694e+05,96184,73509,55027,44360,35974,30248,30956,38360,48068,51558,43758,29532,24794,19122,9855.8,4862.6,-8030.4,-22528,-49946,-81968,-94846,-97572,-1.045e+05,-1.1879e+05,-1.2244e+05,-1.097e+05,-83264,-54627,-35888,-21572,-8250.1,733.16,8712.6,3207.4,-17495,-33314,-29617,-17176,735.42,15309,20382,21560,17692,14340,13513,10354,14777,32316,54448,84333,1.0243e+05,1.1187e+05,1.2214e+05,1.2932e+05,1.4266e+05,1.6559e+05,1.747e+05,1.6503e+05,1.5212e+05,1.3812e+05,1.2536e+05,1.2193e+05,1.3053e+05,1.4044e+05,1.4216e+05,1.3131e+05,1.0746e+05,84190,67668,55731,50058,46949,47746,61262,77097,80360,74123,66077,54076,35982,19302,2161.8,-14224,-23788,-28025,-34232,-42873,-49902,-54175,-51852,-46445,-41882,-39234,-38581,-38024,-36388,-36106,-39180,-42148,-40948,-35665,-29727,-26059,-26345,-30035,-32351,-32184,-33014,-35275,-35864,-37123,-42685,-50177,-57723,-63186,-62227,-54201,-42198,-33065,-30471,-32132,-34348,-34284,-30101,-24201,-20061,-20313,-23861,-28072,-33269,-39974,-44800,-41708,-30626,-19459,-13977,-15299,-20567,-25353,-25601,-21028,-14119,-7606.8,-5979.8,-10480,-19730,-32912,-44396,-47240,-40490,-27696,-13454,-3598.5,-2550.4,-6082,-11398,-16064,-19882,-23362,-26116,-27989,-28129,-35075,-46708,-53117,-50916,-43240,-31000,-20438,-18158,-20597,-22844,-21585,-18696,-15959,-12649,-10880,-12589,-13357,-16915,-24240,-31533,-34783,-33621,-23491,-7404.1,1889.6,2824.3,4795.1,9019.7,12475,12896,18080,25430,28933,28297,22406,10383,65.156,1328.5,13410,24913,28563,26808,20737,15689,16328,20104,25074,26661,19662,9988.6,1561.8,-3715.7,-7915.2,-12507,-11090,-449.74,12828,19300,18077,14592,11323,9359.9,10145,11154,11546,10622,9315.6,8230.9,2983.8,-3180.6,-3901.6,1638.2,10422,18911,22362,20145,17311,16706,18081,19818,19681,17572,16687,17600,15029,7762.9,592.72,-2607.4,1832.3,12001,21748,26847,28197,25858,25527,24172,21156,19183,18460,16194,12055,6772.4,1881,-3715.3,-3082.2,4820.8,12614,17551,20479,21190,19922,16945,13949,11312,9426.4,8982.8,8259.3,4063.5,-1040.7,-4725.2,-5903.5,-4077.7,-81.982,6175,11519,12630,11706,9475.7,6732.7,4397.8,2585.2,1672.9,1201.7,1115.4,736.97,-782.65,-4437.4,-6222.8,-4812.3,-2272.7,-232.82,-26.882,1077.4,698.65,-2782.4,-5572.6,-7070.3,-7752.4,-7990.7,-6800.1,-4675.3,-4911,-7240.9,-9140.8,-9505.7,-8406.1,-6008.9,-2987.1,-1098.8,-2037.7,-4426.4,-7382.2,-9955.4,-11259,-11639,-11644,-10341,-9029.2,-8851.7,-9644.4,-10370,-10903,-10563,-8747.2,-7367.3,-7258.7,-7155.1,-7554.7,-10372,-12954,-13552,-13152,-12995,-12020,-10272,-8862.2,-8735.4,-10059,-11389,-11413,-10731,-10244,-9280.3,-8558.8,-9998.7,-12524,-14258,-15150,-15128,-13817,-11269,-8591.9,-6266.2,-5103.6,-6362.2,-9147,-11120,-11235,-10371,-9705.5,-9905.3,-11535,-14902,-17920,-20239,-19424,-15070,-10431,-3366.9,933.88,-1424.3,-4828.5,-7770.8,-10220,-11051,-9812.5,-8957.4,-9380.3,-10995,-12503,-12471,-11959,-11159,-9020.6,-5173.6,-177.59,3681.2,4096.5,494.98,-4394.1,-7600.4,-7301.3,-4775.9,-4375.5,-6312.5,-7774.3,-9144.7,-9906.4,-8492.2,-4825.8,-528.24,3503.5,7410.1,9988.1,8664.8,3044.5,-17186,-16264,-13752,-11396,-10364,-9986.3,-9407.7,-8591.5,-8243.2,-8922.8,-10380,-12120,-13456,-14738,-16342,-18076,-19519,-19966,-18752,-16486,-14597,-13813,-13628,-13488,-13213,-13107,-13813,-14549,-14858,-15190,-15713,-16753,-18193,-19223,-19325,-18311,-17093,-16370,-15952,-15645,-15478,-15139,-14471,-13803,-13319,-13104,-13384,-13809,-13707,-13601,-14262,-14761,-14660,-14184,-13948,-14135,-14781,-14948,-14168,-12577,-10456,-8576.8,-7246.1,-6282.5,-5566.7,-5452.7,-6483.4,-7614.1,-8227.3,-8644.8,-9139.3,-9308.5,-9890,-10478,-10368,-8832.3,-6354.2,-4101.1,-2188.4,-541.67,890.63,2555.4,3352.5,3051.2,2219.8,600.16,-1040.2,-2473.5,-3748.2,-4590.8,-4700.5,-4079.8,-2093.4,1222.7,5106.2,8518,10719,11888,12690,13086,12659,11242,9028.5,6694.1,4447.3,2484.4,986.7,345.48,1269.4,4307.1,9086.6,13639,17183,19634,21122,22303,22604,21340,18612,15327,12255,9569.1,7166.8,4962.6,4246.2,5799,9708.5,15231,20142,23268,25471,27173,28382,28223,25885,21639,16965,12798,9388.4,6571.6,4533.4,3988.8,6509,11867,18085,22578,25196,27030,28662,29467,28299,24621,19321,14053,9689.8,6132.4,3123.4,730.28,674.85,3799,8809.7,14122,18440,21166,23082,24854,25499,23353,18338,12279,6589.1,1930.4,-2063.2,-5587.8,-7582.9,-6772.1,-2848.4,2999,8601.2,12396,14840,16707,18398,18345,15183,8714.6,1517.1,-4184.1,-8621.7,-12168,-15002,-16525,-15023,-10399,-4428.7,473.68,3463.3,5646.9,7705.1,9061.6,8162,4008.7,-2551,-9406.2,-14977,-19145,-22978,-26063,-26651,-23521,-17804,-12595,-9193.9,-6837.4,-4455.9,-1888.8,-840.76,-2755.2,-7811.2,-14464,-20546,-25155,-28876,-32153,-34273,-34004,-30683,-25511,-20694,-17130,-14248,-11610,-9080.6,-8390.6,-10794,-15872,-21863,-27076,-30979,-33911,-36097,-37007,-35910,-32292,-27112,-22621,-19628,-17301,-14572,-12587,-12645,-15242,-19894,-24527,-28277,-30983,-33032,-34635,-35178,-33822,-30278,-25510,-20968,-18062,-15898,-13277,-11098,-10943,-13575,-17711,-20951,-22640,-24051,-25348,-26011,-25373,-23241,-20254,-17534,-15117,-12854,-10287,-7126.8,-4786.5,-4873.4,-7099.4,-9919.9,-11824,-12318,-12479,-12621,-12710,-12456,-11185,-9244.4,-7185.2,-5091.9,-2421.6,527.87,3151.3,4499.1,4572.7,3228.5,1479.3,1247.3,2423.7,3461.4,4070.7,4073.8,4027,4336.8,4959.2,5882.5,7180.5,8470.9,10252,12420,14351,15298,15459,15745,16568,17911,19498,20435,19711,18052,16625,15818,15775,16411,17637,19505,21417,23168,24493,25537,26962,29032,31201,32815,33048,31266,28197,25271,23151,22039,21741,21810,22282,23742,26471,29347,31741,34154,36637,38666,39630,38764,35803,31316,26201,22248,19835,17902,17114,17733,20111,23694,27147,30341,33452,36665,39299,40359,38191,32360,24833,18112,13719,10939,7979.3,5949.4,6084.6,8818.4,13521,18707,23330,27389,31023,33570,33477,29240,20982,10927,2750.5,-2293.7,-5850.2,-8807.1,-10536,-9395,-5125.3,631.65,6241.3,10994,15289,19313,21721,19901,13448,3681.5,-5957.4,-13991,-20112,-24481,-28436,-30234,-27922,-21999,-14502,-7583.6,-2167.3,2298.4,6130.1,7564.9,4138.4,-4578.2,-16185,-26798,-34145,-39677,-44939,-48933,-49680,-45836,-37907,-28120,-20086,-14632,-9916.7,-6151.4,-6177.1,-11524,-21645,-33514,-43555,-50573,-55893,-60299,-63186,-62801,-57167,-47464,-37501,-29565,-23500,-18548,-14936,-15175,-21567,-32515,-43807,-52668,-58604,-63100,-66965,-68926,-66466,-58674,-47491,-37010,-29012,-23142,-18211,-14935,-16055,-23061,-33787,-43872,-51072,-55701,-59692,-63290,-64005,-59444,-49651,-37842,-27188,-19205,-13249,-8045.2,-5453,-8072.5,-15636,-24744,-32735,-38675,-42869,-46948,-50021,-48778,-41730,-29961,-17385,-8256.2,-1742.7,4434,9922.3,12005,8200.9,861.81,-6666.7,-12018,-15460,-19091,-22980,-25110,-22451,-14130,-2847.2,7946,16132,21937,26898,30803,31590,28339,22261,16284,12510,9890.4,7064.1,4167.4,3157.7,6900.6,15226,24905,32747,38358,42832,46935,50208,50783,48130,43666,39745,37195,35106,32001,28921,28389,32028,38929,46890,52866,56285,58503,60716,62733,63152,61520,58839,56377,54759,52745,49728,46879,46557,49375,53706,57588,59681,60225,60976,62858,65183,66399,66327,65394,64296,62853,60844,57275,53558,51579,51674,52710,52746,51525,50167,49100,48289,49075,51835,55049,57210,57525,56101,52058,47571,44071,41922,38802,34915,30506,25695,21546,18461,18579,24209,31093,36089,38587,39438,39122,36491,31473,24868,17344,10570,4649.9,-2396.3,-11153,-19544,-23176,-20532,-13215,-4103.3,3099.8,6757.9,7752.4,6491.8,3827.4,-1541,-8555.2,-16812,-29073,-41441,-51686,-62360,-70889,-72721,-66339,-52847,-38460,-29115,-25852,-25751,-25819,-27345,-33644,-45363,-59353,-72635,-85903,-1.0155e+05,-1.1771e+05,-1.2584e+05,-1.2217e+05,-1.0799e+05,-89868,-75113,-65182,-56648,-50173,-46112,-48422,-57984,-74163,-93013,-1.105e+05,-1.2626e+05,-1.4137e+05,-1.5422e+05,-1.6015e+05,-1.5378e+05,-1.3496e+05,-1.1065e+05,-89505,-75659,-67508,-60969,-56552,-58841,-71144,-92106,-1.146e+05,-1.3448e+05,-1.5244e+05,-1.6921e+05,-1.8164e+05,-1.8384e+05,-1.7021e+05,-1.427e+05,-1.0966e+05,-81575,-61735,-47337,-39357,-38621,-44171,-58562,-88349,-1.2357e+05,-1.5057e+05,-1.6497e+05,-1.7131e+05,-1.7754e+05,-1.7504e+05,-1.5376e+05,-1.098e+05,-60579,-27384,-6502.4,4376.4,9572,17901,18322,-4271.8,-41009,-75751,-1.0511e+05,-1.2635e+05,-1.3882e+05,-1.4091e+05,-1.3027e+05,-1.0312e+05,-65903,-26404,9212.6,39668,70312,1.0112e+05,1.2146e+05,1.1291e+05,76305,24289,-17078,-37909,-51643,-61613,-61008,-37290,9611.9,73096,1.3306e+05,1.6796e+05,1.8502e+05,1.9803e+05,2.1374e+05,2.1548e+05,1.9701e+05,1.6754e+05,1.2998e+05,96144,83584,75762,71871,85053,1.1442e+05,1.5596e+05,2.0106e+05,2.3367e+05,2.5297e+05,2.668e+05,2.8922e+05,3.0438e+05,3.0101e+05,2.8078e+05,2.5275e+05,2.437e+05,2.6014e+05,2.7681e+05,2.7011e+05,2.3262e+05,2.0724e+05,2.2563e+05,2.5612e+05,2.9147e+05,3.2779e+05,3.6087e+05,3.9878e+05,4.2541e+05,4.2079e+05,3.8494e+05,3.3811e+05,3.1331e+05,3.1787e+05,3.3067e+05,3.2612e+05,3.0213e+05,2.8695e+05,2.8882e+05,2.9904e+05,3.283e+05,3.6809e+05,4.1332e+05,4.6168e+05,4.9258e+05,4.9668e+05,4.7197e+05,4.4388e+05,4.1641e+05,3.7647e+05,3.3924e+05,3.0615e+05,2.545e+05,2.0907e+05,1.9063e+05,1.8821e+05,1.9359e+05,2.143e+05,2.5497e+05,2.9601e+05,3.4338e+05,4.2513e+05,4.8369e+05,4.8659e+05,4.6335e+05,4.3328e+05,4.0478e+05,3.9451e+05,3.6602e+05,2.7718e+05,1.3874e+05,-83884,-4.6957e+05,-9.8699e+05,-1.4824e+06,-1.8695e+06,-2.1946e+06,-2.4686e+06,-2.5947e+06,-2.5109e+06,-2.3124e+06,-2.0862e+06,-1.873e+06,-1.6771e+06,-1.5024e+06,-1.342e+06,-1.1637e+06,-9.9948e+05,-9.0924e+05,-9.0498e+05,-9.4016e+05,-8.9713e+05,-7.5441e+05,-6.2171e+05,-5.3579e+05,-4.3574e+05,-2.9787e+05,-1.5768e+05,-53962,14544,34948,14352,29439,2.2364e+05,4.7625e+05,6.4088e+05,7.2766e+05,7.3338e+05,6.8679e+05,6.1074e+05,5.2003e+05,3.9508e+05,2.5223e+05,1.2351e+05,76998,1.5576e+05,3.0783e+05,4.6006e+05,5.6527e+05,6.1071e+05,6.105e+05,5.8363e+05,5.798e+05,6.241e+05,6.4596e+05,5.8178e+05,4.8982e+05,4.0797e+05,3.3043e+05,2.8022e+05,2.7872e+05,2.8218e+05,2.6175e+05,2.4538e+05,2.7448e+05,3.3935e+05,3.7064e+05,3.0749e+05,1.4531e+05,-11971,-70204,-77404,-47954,14196,51820,24437,-18036,-15021,27578,68840,61748,-665.3,-94056,-1.4768e+05,-1.4128e+05,-95848,-39748,8169.5,58571,1.0109e+05,1.2381e+05,1.2374e+05,98954,68179,39547,18053,13342,8313.3,-2835.7,-20231,-39076,-45473,-20509,35712,1.1236e+05,1.7838e+05,2.17e+05,2.4432e+05,2.66e+05,2.7364e+05,2.5583e+05,2.1911e+05,1.8702e+05,1.6724e+05,1.5364e+05,1.4517e+05,1.3986e+05,1.3432e+05,1.2554e+05,1.1304e+05,90938,67219,64224,94012,1.4381e+05,1.8532e+05,2.1247e+05,2.2397e+05,2.1144e+05,1.7417e+05,1.2575e+05,77509,23474,-29173,-45500,-27409,7732.2,41665,52997,50155,48415,51862,60105,53995,29046,-4257.3,-55771,-1.2274e+05,-1.4705e+05,-1.3109e+05,-1.083e+05,-74104,-8916.1,72137,1.3214e+05,1.3499e+05,59247,-56932,-1.4149e+05,-1.8141e+05,-1.8717e+05,-1.7729e+05,-1.5818e+05,-1.2104e+05,-79116,-51521,-41864,-50227,-72550,-1.0407e+05,-1.4061e+05,-1.6152e+05,-1.5201e+05,-1.2131e+05,-79474,-38426,-21810,-39077,-75491,-1.0995e+05,-1.382e+05,-1.7088e+05,-2.0392e+05,-2.2585e+05,-2.3055e+05,-2.1963e+05,-1.9103e+05,-1.556e+05,-1.3408e+05,-1.3485e+05,-1.3535e+05,-1.1625e+05,-93158,-81548,-85941,-1.007e+05,-1.186e+05,-1.2678e+05,-1.2707e+05,-1.347e+05,-1.3944e+05,-1.4157e+05,-1.3895e+05,-1.3007e+05,-1.2205e+05,-1.1222e+05,-91108,-60121,-32017,-17391,-22134,-43725,-72783,-98225,-1.1804e+05,-1.3959e+05,-1.4301e+05,-1.1823e+05,-77768,-32170,-1140.9,-667.96,-13012,-23506,-22129,-7733.5,6906.8,12233,7984.5,-5937.5,-18459,-32604,-50786,-60853,-61138,-50048,-26568,-5954.1,6431.9,20323,44239,75567,1.0636e+05,1.2228e+05,1.1705e+05,98375,79920,69294,63808,54747,53004,64771,85682,1.1564e+05,1.5168e+05,1.8682e+05,2.0656e+05,1.9473e+05,1.4052e+05,57252,-23581,-67219,-73902,-65515,-46292,-23317,-11309,-12665,-13386,-30743,-65166,-78466,-66161,-47828,-19176,18405,40918,42081,36011,31462,24514,17390,12745,16624,35536,55925,67671,73037,74828,75748,73695,70670,67629,58720,51468,50407,48495,49792,48041,38303,20955,7659.6,3770.5,7829.6,26081,67483,1.1212e+05,1.3917e+05,1.5259e+05,1.6062e+05,1.6498e+05,1.6043e+05,1.5727e+05,1.5406e+05,1.4421e+05,1.3562e+05,1.2956e+05,1.2164e+05,1.0366e+05,85253,73710,62211,49947,42217,41633,47833,53346,53690,48530,39184,29013,24842,22721,16561,6626.7,-5861.5,-17943,-25619,-31117,-37483,-40943,-38945,-32716,-26777,-23403,-22381,-22101,-22375,-22392,-20332,-19148,-21007,-26412,-33581,-40164,-47301,-56255,-63054,-64212,-59831,-54236,-49875,-47435,-45404,-42029,-37211,-32863,-31605,-35051,-40821,-46182,-52468,-60675,-67886,-71468,-71778,-68615,-63026,-56863,-51152,-44840,-34674,-22596,-13697,-11990,-18278,-28533,-37320,-44547,-51688,-57200,-58878,-54734,-48041,-43217,-38375,-31647,-23640,-15490,-10721,-13411,-20451,-26296,-31770,-37605,-40892,-41771,-43410,-47286,-47938,-42560,-36542,-32903,-29105,-27033,-27467,-29622,-31547,-32401,-34329,-37647,-41518,-49294,-57384,-60996,-61002,-57262,-48380,-37552,-27040,-17792,-10751,-4672.9,1719.8,8324.9,9971.5,1877.9,-7101.3,-11411,-15514,-21997,-29454,-36599,-37875,-24860,-3167.2,8237.3,9210.4,12432,18862,23408,23070,19244,12823,4809.4,-2595.7,-7922.2,-9646.6,-9163.2,-8678.1,-5326.4,3826,13641,21312,29300,38247,44620,44673,37863,27807,19389,13880,8754.4,2955.9,-2733.1,-6341.8,-4374.5,3107.1,13750,24582,32897,39817,46332,51177,52822,49476,41880,33428,26841,22218,16719,11311,8997.9,11423,18762,29400,38258,43740,48935,53359,55783,55777,51598,43973,36067,29760,26069,22895,18116,14152,14963,21149,29347,34186,35390,36177,38534,41238,39875,34333,27310,21656,18158,14005,8475.3,4038.7,4008.6,7466.1,11623,15628,20114,24418,26513,27280,27746,25734,21390,16969,12098,7101,2782.9,-1805.6,-5206.7,-6118.2,-4210.8,-258.23,4045.7,6859.5,8365,9013.6,8359,6685.7,3556.6,-315.84,-2407.3,-2930.6,-4871.2,-8015.2,-10342,-11275,-10923,-9667,-7940.9,-7063.1,-7510.9,-8138.6,-8247.2,-7990.8,-7593.8,-7174,-7986.7,-9549.6,-11744,-13599,-15690,-18425,-7951.1,-5872.7,-3661,-1671.4,-582.71,39.849,958.59,2293.1,3065.8,3014,2862.1,2567.1,2388.7,2460,3061.2,4112.4,5073.3,5454.1,5223.4,5156.7,5409.2,6090.3,7144.9,8287,9009.1,9749.2,11219,13602,16055,17678,18627,19251,19515,18942,17215,14765,12207,10763,10935,11882,12978,14186,16606,20864,25952,29750,31139,30489,29389,28281,25996,21516,16046,12142,11213,11943,12699,13363,14747,18571,25363,33105,38203,39549,38279,36054,33307,28802,21597,13824,8751.3,7195.4,8127.3,8865,8848.2,10723,16770,26456,36200,41811,42132,39112,35312,30344,23004,13244,3699.6,-2085.5,-3164.6,-2159.4,-2088.4,-1449.9,2552.4,11956,24820,35354,39205,37222,32749,27685,20969,10770,-1273.3,-11518,-16515,-16754,-16051,-16042,-15140,-9011.8,3438.6,18021,28107,30393,27120,21535,14890,5648.9,-6715.2,-20069,-30054,-33423,-32561,-32236,-32914,-30356,-20247,-3829.9,12026,20758,20508,15358,9308.9,1641.9,-9904.3,-24901,-38794,-46697,-48283,-47331,-47572,-47594,-42102,-28267,-9601.8,5688.1,11743,9547.9,3555.9,-3301.8,-12377,-25635,-41690,-54466,-59876,-59784,-59223,-60012,-58820,-50543,-33396,-12646,1996.6,5475.6,1862.9,-3832.3,-10990,-21359,-35648,-50413,-60519,-64228,-63753,-63589,-65284,-62222,-49247,-28187,-7318.1,3671.8,4470.5,155.96,-5546.3,-13295,-24676,-39082,-52213,-59346,-59616,-57662,-57672,-57626,-50950,-34097,-12724,3664.9,10699,9543.6,4759.7,-1322.9,-10009,-22141,-35092,-43986,-46902,-45809,-45115,-46101,-43857,-33106,-14729,4207.9,16690,21322,19899,16006,11617,5049.4,-5134.1,-16618,-24565,-26804,-25399,-23205,-21895,-18488,-8216.4,8094.9,24087,33701,35485,32818,29171,24861,18336,9138.3,652.97,-3761.1,-3728,-2216.6,-63.263,2433.9,6948.7,15961,28242,39523,45745,46979,45376,42687,38469,31953,25073,20060,18678,20376,21937,22445,24089,28558,36163,44907,51058,51906,50778,51324,51715,48630,44834,40554,36342,34913,36054,39147,39773,38804,40803,44415,47655,48914,48583,49096,50499,50962,50695,51082,51855,51653,50640,49445,48248,47188,45004,40804,36124,34256,35671,37413,36287,33266,33525,37986,44932,50213,51209,48937,46099,43708,41472,35982,25996,16710,9938.3,7547.6,8512.6,10750,13168,17487,25666,35477,41728,41981,38491,34594,31354,26529,15009,-1660.2,-18184,-28863,-31638,-27175,-22781,-21127,-14039,515.75,14682,20908,20384,17131,14193,10845,2193.8,-15919,-40892,-64528,-77569,-77793,-71804,-64022,-53891,-38557,-19451,-4524.5,-160.87,-1144.8,-4928.9,-7790.7,-13355,-27422,-54300,-87677,-1.0977e+05,-1.1551e+05,-1.1224e+05,-1.0552e+05,-97018,-79032,-53648,-28121,-11809,-7966.4,-10774,-16892,-24802,-33589,-54248,-90612,-1.2962e+05,-1.5239e+05,-1.5501e+05,-1.4831e+05,-1.3937e+05,-1.2504e+05,-1.0203e+05,-67535,-32410,-13672,-14342,-20332,-23342,-29407,-42966,-72707,-1.1807e+05,-1.6059e+05,-1.7844e+05,-1.7493e+05,-1.673e+05,-1.5087e+05,-1.2299e+05,-85611,-43741,-13481,-1027.4,-1683.6,-3447,-2379.3,-10347,-41687,-94732,-1.5e+05,-1.7531e+05,-1.757e+05,-1.6741e+05,-1.5081e+05,-1.2685e+05,-93931,-51833,-10394,21175,31726,31174,29112,27204,17299,-21569,-79691,-1.3048e+05,-1.5175e+05,-1.4857e+05,-1.3387e+05,-1.1581e+05,-86900,-43679,11638,62209,91150,89514,83936,89177,91915,73603,26134,-39831,-96113,-1.1563e+05,-1.0163e+05,-79285,-56090,-22313,29964,90605,1.3731e+05,1.5879e+05,1.6054e+05,1.578e+05,1.622e+05,1.7011e+05,1.4927e+05,85907,7283.4,-48412,-65313,-52507,-20549,21564,74440,1.4162e+05,2.0475e+05,2.4286e+05,2.4937e+05,2.4486e+05,2.4958e+05,2.5853e+05,2.5138e+05,2.1244e+05,1.4254e+05,67524,24027,21405,44421,71406,1.0711e+05,1.5897e+05,2.2165e+05,2.7951e+05,3.1118e+05,3.1618e+05,3.1676e+05,3.292e+05,3.3772e+05,3.1666e+05,2.5726e+05,1.7835e+05,1.1197e+05,79806,80693,97322,1.1832e+05,1.4717e+05,2.0307e+05,2.8122e+05,3.4714e+05,3.8047e+05,3.8627e+05,3.8716e+05,3.8823e+05,3.6722e+05,3.0853e+05,2.2566e+05,1.4745e+05,1.0042e+05,95401,1.1828e+05,1.4808e+05,1.7704e+05,2.1405e+05,2.7407e+05,3.4108e+05,3.9137e+05,4.1325e+05,4.1141e+05,4.0846e+05,4.1145e+05,4.0127e+05,3.5325e+05,2.7089e+05,1.8672e+05,1.406e+05,1.3683e+05,1.5134e+05,1.7478e+05,2.1214e+05,2.6526e+05,3.275e+05,3.825e+05,4.0815e+05,4.0147e+05,3.8411e+05,3.7424e+05,3.6242e+05,3.17e+05,2.27e+05,1.1208e+05,10457,-63621,-1.7393e+05,-4.6687e+05,-8.1766e+05,-1.0169e+06,-2.0685e+06,-3.3272e+06,-4.1219e+06,-4.2592e+06,-4.2626e+06,-4.269e+06,-4.2668e+06,-4.0731e+06,-3.2329e+06,-2.012e+06,-7.5217e+05,3.8488e+05,9.7388e+05,7.6936e+05,5.3393e+05,4.88e+05,5.3338e+05,5.9274e+05,6.5041e+05,6.9452e+05,7.0805e+05,7.0317e+05,6.9381e+05,6.8503e+05,6.5644e+05,5.9363e+05,4.9934e+05,4.0233e+05,3.3652e+05,3.1251e+05,3.1931e+05,3.3965e+05,3.6997e+05,4.0705e+05,4.5646e+05,4.9478e+05,5.1118e+05,5.0807e+05,4.9628e+05,4.8867e+05,4.7311e+05,4.297e+05,3.4475e+05,2.3981e+05,1.5672e+05,1.2308e+05,1.3275e+05,1.5584e+05,1.7999e+05,2.1395e+05,2.6633e+05,3.2536e+05,3.7226e+05,3.9193e+05,3.909e+05,3.8896e+05,3.9441e+05,3.9322e+05,3.5575e+05,2.7469e+05,1.7791e+05,1.0847e+05,84573,94406,1.2113e+05,1.5293e+05,1.9552e+05,2.5562e+05,3.164e+05,3.5202e+05,3.5345e+05,3.3459e+05,3.2144e+05,3.1478e+05,2.8789e+05,2.2539e+05,1.4054e+05,61221,19207,15808,27832,46530,63483,98982,1.5351e+05,2.032e+05,2.3018e+05,2.255e+05,2.029e+05,1.8777e+05,1.8031e+05,1.5351e+05,89876,1143.4,-78806,-1.1852e+05,-1.2086e+05,-1.0787e+05,-88728,-58773,-12130,43944,88473,1.0418e+05,98474,89572,86012,76070,41389,-22956,-95471,-1.4453e+05,-1.5805e+05,-1.4867e+05,-1.3262e+05,-1.1981e+05,-96231,-50952,1247,35723,44566,39166,35591,35972,21991,-25460,-94423,-1.5725e+05,-1.9397e+05,-2.0001e+05,-1.8666e+05,-1.6663e+05,-1.4254e+05,-1.0741e+05,-61836,-19442,5876.8,10747,6285,6144.7,4451.6,-17447,-67251,-1.3137e+05,-1.8389e+05,-2.0845e+05,-2.0434e+05,-1.849e+05,-1.6412e+05,-1.4073e+05,-1.0401e+05,-58993,-24492,-9634.4,-10017,-14644,-16903,-21872,-43109,-84191,-1.3291e+05,-1.677e+05,-1.7752e+05,-1.6993e+05,-1.571e+05,-1.398e+05,-1.1338e+05,-77621,-42514,-19842,-14859,-17784,-18452,-17134,-23975,-49833,-91230,-1.3019e+05,-1.4986e+05,-1.4844e+05,-1.3605e+05,-1.2058e+05,-1.0434e+05,-81734,-51448,-22464,-5285.7,-779.24,-770.05,2231,5203.2,-3287.6,-28605,-62752,-91308,-1.0335e+05,-99144,-88759,-76655,-59566,-35735,-10348,8613.5,17207,19209,21378,25671,27017,16519,-7300.8,-34350,-51929,-55201,-48209,-38230,-27015,-12034,6887,24670,36476,40578,41498,44291,47619,45506,33517,13768,-4935.5,-14737,-14478,-8403,-1693.8,5300.5,15540,28699,40924,48130,51642,53776,56669,58488,55343,45654,32254,21413,16352,17470,23637,30482,37953,47434,55416,60041,62734,64211,65293,67641,69227,66721,58975,48108,39093,36891,39115,42221,45027,46298,48592,52607,58582,62021,60339,56111,50807,44939,40815,38731,37633,37936,38937,41302,43632,43478,40094,35125,31253,27326,25637,26940,28100,28215,29265,31165,34139,36846,38136,38327,38394,38420,35756,28482,18311,10420,5363.9,1492,-591.49,-553.75,783.92,5139,16258,30088,40103,44789,41942,34229,26621,16941,2388.3,-13404,-23545,-25601,-23844,-23883,-23705,-20886,-13713,-1615.9,10790,18640,19925,16729,11424,4024.6,-5841.6,-17886,-29739,-36993,-38506,-37801,-38153,-37696,-32154,-19567,-2990.8,10622,15641,12859,7175.2,95.968,-9866.8,-22992,-35168,-42516,-41392,-32742,-25475,-24257,-23837,-18313,-5875.2,10797,16894,7987.7,-4652.4,-15518,-25074,-36304,-51321,-64712,-70924,-68894,-62982,-60434,-61143,-58327,-47874,-30596,-13012,-2182.8,640.62,-2458.5,-9192.1,-18340,-31403,-48191,-61908,-65729,-60953,-55303,-55416,-56619,-52483,-39097,-20692,-6656.9,-1417.6,-3333.5,-7018.7,-7621.8,-10001,-18372,-33201,-50269,-62569,-67680,-67746,-65861,-61644,-49884,-28451,-3970.8,13720,19259,16587,11411,4125.3,-5344.9,-16608,-28314,-37768,-42369,-42696,-42587,-41967,-36492,-25098,-10431,6909,19175,24634,24921,20868,13110,2152.3,-10478,-21966,-29238,-29914,-28066,-26313,-24333,-19443,-6661,13320,30569,38686,39120,36618,33681,29239,20287,6988.9,-3822.8,-6010.8,-2883.1,-179.36,391.02,2559.1,12248,27645,41562,51450,55268,51856,45691,39543,31357,20875,12058,4252.8,144.19,-308.24,-2260.6,-4752.9,2204.7,15244,30589,42560,47233,45867,40773,36401,34348,32748,33189,32346,26898,17631,13330,10548,10813,16567,26375,35528,40372,40219,35804,29792,23608,19139,18797,18112,15217,13892,14896,12390,8330.6,9430.7,15582,24184,31910,36872,37625,33957,30747,29508,26840,20258,12001,7554.6,6406.9,6109.3,5883.2,3563,2526.5,2827.3,3628.5,6753.3,11777,14109,13196,11168,10563,8858,4278.1,2732.8,3330.7,5595.1,7256.9,4546.7,1838.5,1535.6,1357.9,1282.7,2820.2,3573.2,4938.6,6777.6,4517.9,281.96,-3939.7,-7673.6,-12367,-14548,-14052,-12385,-13427,-17367,-18904,-17828,-18542,-20969,-20266,-17278,-16568,-17465,-18802,-18874,-15831,-14342,-17321,-21015,-20444,-18363,-18402,-22418,-27909,-33295,-35040,-32344,-29207,-28061,-25544,-19703,-15059,-12814,-13145,-14964,-16890,-17179,-18027,-20209,-24683,-30653,-35544,-37038,-35814,-33403,-30332,-27978,-25563,-20299,-14888,-12351,-11942,-10825,-9662.2,-9479.1,-11835,-19160,-29646,-36833,-38727,-38413,-36007,-29867,-23231,-14767,-6309.3,-1298.5,631.44,921.62,579.97,513.32,-1110.7,-7634.4,-18086,-28726,-35885,-36666,-32760,-27527,-22892,-17257,-9023.2,716.89,6776.8,9010.9,9250.3,8433.7,7629.7,2825.1,-6246.6,-15382,-23783,-25668,-22290,-17998,-12391,-5821.4,1219.5,8805.7,13249,15212,16276,18034,19659,20658,16183,5747.8,-5271.7,-12886,-13783,-9658.4,-5734.6,-1430.9,4843.9,13426,23128,29815,31804,30437,28491,27003,23034,13940,3320.3,-4820,-8076,-7440.8,-6206.5,-4524.9,-550.71,6097.3,14803,23113,28230,31105,33222,35513,38576,34073,21338,8726.8,-699.92,-4597.3,-5389.5,-4070.4,388.18,5790.6,12151,21586,29871,33615,34173,33435,30618,26004,20823,13732,4645.5,-1937.2,-4055.6,-3488.4,-1082.7,2320.6,7038.3,13977,21187,25738,27019,26341,26051,25555,22296,17071,8364.2,-1689.3,-8098.2,-8603,-5646.3,-2787.8,57.531,3979.9,9145.6,15085,18831,19189,19203,18916,19108,16867,10542,2551.7,-5255.5,-10912,-11650,-10813,-9644,-7263.1,-3153.6,2196.2,7502.8,10053,9192.7,8230.9,8902.1,8369.3,4598.9,-2214.6,-10017,-14100,-14063,-13519,-12983,-12015,-9164.9,-5168.3,-1584.4,247.36,-403.28,-1342.2,-981.11,-433.75,-1004.1,-4365.2,-10588,-14667,-15926,-18137,-19811,-19114,-17359,-14915,-10481,-4605,-196.61,-2178.8,-7155.4,-10271,-10671,-10635,-11580,-13987,-15716,-18389,-20806,-21152,-20336,-18745,-16705,-15085,-14026,-13616,-13345,-13119,-12977,-12719,-12886,-13563,-14298,-14311,-14001,-14845,-15591,-15830,-15916,-15520,-16432,-17801,-16877,-14699,-13324,-11692,-10566,-11468,-11299,-10439,-11463,-12555,-11542,-9607,-9460.4,-10856,-12129,-13024,-13807,-13778,-13168,-12581,-11694,-10210,-8006.7,-5833.5,-4075.2,-3303.5,-3033.4,-3044,-2904.3,-6508.2,-7268,-8059,-8434.1,-8940.2,-9545,-9672.8,-9270.4,-8666.3,-8139.1,-7594.8,-7201.4,-7894.7,-8870.4,-9572.1,-10217,-10586,-11427,-12195,-12872,-13534,-13908,-13989,-13331,-12408,-11629,-11473,-11503,-11541,-11733,-12273,-13152,-14105,-14606,-14090,-13636,-14339,-15535,-16432,-16040,-14725,-13123,-11961,-11728,-11929,-12080,-11751,-11511,-12580,-14003,-14660,-14544,-14842,-15472,-15754,-15363,-14112,-12365,-11010,-10633,-10568,-10542,-10154,-9376.6,-9024.8,-9732,-11026,-11795,-12048,-12246,-12305,-12247,-11481,-9399.6,-7257.8,-6205.4,-6406.1,-6857.8,-5772.1,-4313.1,-3618.7,-3816.5,-4663.5,-5235.5,-5373,-5766.2,-6114.1,-6705.2,-6779.1,-5110.5,-2582,-1291.9,-1071.9,-1098.3,-674.43,440.03,1901,2614,2304.5,1546.5,1209.9,1129,1386.6,1176.5,880.26,1614.7,3170.7,4573.6,5347.8,5213.3,4885.7,6013.9,8030,9330.1,9902,10026,9787.2,8196,7296.2,6983.4,6544.1,6640,7815.9,9950.1,11757,12243,11587,11049,11627,13171,14422,14692,14056,13295,12819,12654,12321,11830,11964,13101,14729,15561,14978,13899,13982,15213,16833,17659,17079,15997,15206,14915,14551,13684,12385,12301,13741,15444,15660,14503,12961,12817,14000,15329,15714,15109,13950,12916,12249,11768,10926,10157,9874.7,10365,11168,11424,10141,8819.2,8527.6,9476.1,10673,10420,9410.6,8503.6,7995.1,7244.2,5943.7,4594.2,3983.4,4534.4,5448.5,5268.4,3440.2,1227.9,-48.918,423.95,1757.4,2157.7,1354.5,626.85,93.904,-775.2,-1864.8,-2640.2,-3052.3,-3345.6,-3189.1,-3190.7,-5142,-8003.5,-9416.4,-8544.6,-7051.2,-6289,-6734.1,-7273.4,-7604.5,-8231,-8987.1,-10235,-11435,-11826,-11800,-11594,-12211,-13964,-15965,-16811,-16468,-16056,-15571,-15235,-15376,-15729,-16109,-16417,-17020,-17594,-17660,-17753,-18217,-19393,-21123,-22780,-23546,-23346,-22509,-21291,-20359,-20363,-20311,-20097,-20190,-20627,-20686,-20150,-19664,-20367,-21896,-23283,-23780,-23463,-22947,-22336,-21867,-21273,-20261,-19364,-18913,-18663,-18488,-18489,-18397,-18896,-20084,-21440,-22065,-21865,-21188,-20959,-20799,-19438,-16881,-16004,-15755,-14422,-13126,-12626,-12214,-11655,-11909,-14015,-15308,-14259,-13080,-12688,-12299,-11381,-10080,-8872.4,-8446.4,-8125,-6245.6,-2692.5,-881.72,-848,-1660.2,-3229.5,-4508.4,-4140.2,-2704.7,-1635,-821.39,-609.96,-120.81,1697,3920.8,5435.2,6341.8,7745,9772.5,11381,11465,9946.7,8167.3,7850.2,8470.6,9074.4,9141.7,9108.4,9611.5,10941,12971,15203,16885,17949,19307,20715,20732,19669,18131,17784,18555,18879,18858,18015,16961,17360,19430,21371,22941,24003,25154,26738,28185,28433,26584,24085,22801,23336,24653,24516,22872,21517,21574,22847,24659,25765,26438,27531,28925,29814,28690,26004,23735,22478,22770,22910,21840,20845,20491,20095,20990,22542,23606,24178,24958,25236,24802,22687,19480,17556,17503,18087,17990,16180,13139,10554,9875.8,11464,13440,13499,12522,12968,15014,14613,10662,7189.2,6079.7,6541,7276,6129.8,2822.7,-740.48,-2598.9,-2009.9,-842.96,-621.5,-782.3,-303.03,723.14,490.52,-1594.6,-5657.8,-8830.9,-9443.9,-8191.7,-7683.2,-9160.9,-12464,-15881,-17315,-17107,-16516,-16419,-16266,-15348,-14566,-15482,-18079,-21077,-22859,-22510,-21424,-21965,-24115,-27339,-30115,-30954,-30512,-29877,-29722,-29534,-28748,-28120,-28823,-31057,-33242,-33988,-32400,-30785,-31691,-35243,-39428,-41564,-40891,-38457,-37471,-37688,-37303,-36386,-36193,-37186,-38608,-39422,-37847,-35638,-34966,-35487,-37250,-38443,-38315,-38336,-38246,-38067,-37593,-36668,-36448,-36510,-35695,-34696,-34338,-31824,-27857,-26911,-29641,-31847,-33138,-33158,-30483,-29043,-29426,-28656,-26458,-24777,-25263,-25906,-23769,-20309,-18350,-16994,-16088,-15424,-15317,-15985,-16190,-15129,-14330,-13833,-13090,-11082,-8655.6,-6677.2,-4883,-3307.6,-507.44,2738.2,4249.8,3701,2716.6,2726.8,3658.3,5238.8,6972.1,8084.6,8939.5,10392,11122,11249,12947,15682,19448,23586,26359,27467,27541,27427,27424,27448,27350,27374,28315,29855,30661,30631,30938,32732,36566,40495,42715,44608,45445,45499,46405,46136,44290,42434,43654,46202,45088,39870,36846,38388,44309,51837,54549,54785,55654,56435,56853,57264,56373,53788,51584,50314,49066,48055,46624,46718,46763,50173,54759,56428,54315,52028,53621,56617,57496,54173,48776,42290,36494,38938,40154,33890,32801,32724,33048,36455,41258,42709,42895,43854,42217,40692,37558,33426,28745,25886,21014,17012,14883,14472,16598,19376,19144,16768,14977,13905,15605,15700,11979,5562.4,-337.31,-3501.9,-4811.7,-11007,-19836,-24256,-18573,-11994,-9996.8,-12198,-15722,-18170,-17829,-15900,-15937,-20016,-26094,-31393,-35672,-41686,-48778,-53769,-55795,-53220,-48472,-46596,-50309,-56110,-58633,-57241,-54022,-53039,-56712,-62235,-66753,-70662,-74981,-81179,-88260,-89279,-82834,-76866,-76841,-82537,-86861,-84662,-79145,-76679,-80166,-89055,-94153,-96113,-1.0411e+05,-1.1357e+05,-1.1466e+05,-1.0961e+05,-1.0469e+05,-98349,-94080,-95739,-1.0176e+05,-1.0393e+05,-98984,-86753,-81228,-89695,-97706,-96226,-93197,-95590,-1.0176e+05,-1.0703e+05,-1.0742e+05,-1.0357e+05,-97297,-93877,-97937,-1.0198e+05,-97975,-85862,-76837,-72394,-65075,-63339,-72271,-81044,-80895,-74632,-74050,-75102,-65856,-55237,-52953,-56711,-57850,-50685,-37408,-26191,-22455,-23606,-24130,-21975,-21560,-24835,-28036,-27792,-21174,-9288.8,1089.4,3540.9,907.94,3425.5,15770,32497,41597,40749,38579,39956,43422,44468,43721,49857,70305,95486,1.1297e+05,1.1795e+05,1.0735e+05,97628,1.0621e+05,1.2264e+05,1.3735e+05,1.5349e+05,1.6441e+05,1.6769e+05,1.7249e+05,1.8116e+05,1.865e+05,1.7729e+05,1.6234e+05,1.6544e+05,1.7477e+05,1.7626e+05,1.723e+05,1.6539e+05,1.6956e+05,1.9771e+05,2.3509e+05,2.6356e+05,2.8634e+05,3.0658e+05,3.1447e+05,3.0412e+05,2.9381e+05,2.9609e+05,2.9055e+05,2.7881e+05,2.8063e+05,2.9895e+05,3.165e+05,3.3716e+05,3.6896e+05,3.9502e+05,4.0524e+05,4.1967e+05,4.4508e+05,4.5624e+05,4.239e+05,3.6577e+05,3.1702e+05,2.9603e+05,2.9633e+05,3.2039e+05,3.575e+05,3.7831e+05,3.7458e+05,3.4656e+05,3.0225e+05,2.6011e+05,2.216e+05,1.9637e+05,1.904e+05,1.7878e+05,1.5206e+05,1.1851e+05,58243,-2140.9,-57285,-58352,1.6752e+05,1.6259e+05,-2.3019e+05,-5.4674e+05,-6.7195e+05,-6.8972e+05,-6.5083e+05,-5.1742e+05,-3.8004e+05,-2.9458e+05,-2.0778e+05,-1.229e+05,-42236,20774,-2933.1,-1.1316e+05,-2.5349e+05,-3.9674e+05,-4.8637e+05,-4.7226e+05,-3.3575e+05,-2.4829e+05,-3.2346e+05,-5.2835e+05,-8.3223e+05,-1.2317e+06,-1.5964e+06,-1.8147e+06,-1.808e+06,-1.6497e+06,-1.4221e+06,-1.1448e+06,-8.7285e+05,-6.6311e+05,-5.3112e+05,-4.7217e+05,-4.2023e+05,-3.7738e+05,-3.7153e+05,-3.6863e+05,-3.3309e+05,-2.7174e+05,-1.8556e+05,-66747,67391,2.0147e+05,3.3531e+05,4.434e+05,4.9279e+05,4.7901e+05,4.4824e+05,4.448e+05,4.7496e+05,5.0886e+05,5.2653e+05,5.1727e+05,4.7344e+05,3.9521e+05,3.3387e+05,3.1302e+05,2.9876e+05,2.8257e+05,2.6149e+05,2.435e+05,2.3986e+05,2.386e+05,2.2178e+05,2.0691e+05,2.1477e+05,2.389e+05,2.6585e+05,2.8824e+05,3.0794e+05,3.4129e+05,3.6208e+05,3.3982e+05,2.9081e+05,2.5737e+05,2.3113e+05,1.7894e+05,99048,-7831.3,-1.5898e+05,-3.2736e+05,-4.555e+05,-5.1208e+05,-4.9226e+05,-4.0863e+05,-2.8699e+05,-1.5925e+05,-19125,1.3753e+05,2.8013e+05,3.6045e+05,3.4967e+05,2.4404e+05,71301,-74799,-1.2406e+05,-1.0657e+05,-61036,-9542.2,22172,31733,26786,12616,16868,50855,96960,1.3415e+05,1.5722e+05,1.727e+05,1.7737e+05,1.6142e+05,1.2257e+05,74894,43339,59381,1.141e+05,1.7468e+05,2.218e+05,2.4534e+05,2.4612e+05,2.1562e+05,1.7737e+05,1.7053e+05,1.858e+05,1.8755e+05,1.7824e+05,1.758e+05,1.8154e+05,1.8035e+05,1.7057e+05,1.6122e+05,1.6001e+05,1.5892e+05,1.4006e+05,1.1454e+05,94993,93221,1.2561e+05,1.6439e+05,1.7461e+05,1.5014e+05,97275,36778,-5562.1,-28043,-27013,-7813.9,23132,58325,86403,88262,65098,37416,16477,4678,-7747,-22317,-28624,-32413,-30599,-8635.2,17363,34070,39908,28003,-4162.3,-42468,-80573,-1.0743e+05,-1.275e+05,-1.3686e+05,-1.2228e+05,-97436,-78463,-66692,-64834,-72101,-89830,-1.171e+05,-1.4401e+05,-1.6326e+05,-1.6483e+05,-1.4471e+05,-1.185e+05,-99672,-93209,-94666,-1.0325e+05,-1.2078e+05,-1.3946e+05,-1.4498e+05,-1.4416e+05,-1.451e+05,-1.3553e+05,-1.1854e+05,-1.0874e+05,-1.0627e+05,-1.0599e+05,-1.0489e+05,-1.1165e+05,-1.2089e+05,-1.2381e+05,-1.2182e+05,-1.2552e+05,-1.2729e+05,-1.1827e+05,-1.1033e+05,-1.1017e+05,-1.0575e+05,-96428,-90014,-84397,-77321,-68173,-48650,-28905,-24357,-25360,-36127,-54628,-71604,-78330,-73243,-62103,-47908,-32878,-15341,426.11,3080.3,-5490.4,-17888,-32966,-41829,-40355,-36019,-41501,-57604,-72524,-74877,-76416,-77420,-70976,-60521,-55614,-56941,-63027,-75396,-88879,-98279,-1.0023e+05,-94057,-80166,-65751,-58134,-59835,-64865,-76360,-1.2296e+05,-1.9054e+05,-2.1905e+05,-2.0567e+05,-1.621e+05,-83613,159.76,59105,1.0374e+05,1.3196e+05,1.3524e+05,1.3184e+05,1.3175e+05,1.3256e+05,1.3087e+05,1.3182e+05,1.4542e+05,1.6832e+05,1.9444e+05,2.1373e+05,2.1844e+05,2.1139e+05,1.9933e+05,1.8174e+05,1.5931e+05,1.3732e+05,1.1549e+05,93294,79168,68932,61079,58676,62011,71995,92169,1.1397e+05,1.2769e+05,1.3525e+05,1.3447e+05,1.2791e+05,1.1873e+05,1.0484e+05,89616,79369,73339,69855,68579,67693,64659,62175,62040,65814,68991,67135,64191,62199,60810,60046,57074,50234,42498,36754,34461,34600,32728,30255,28568,29474,32385,32921,30767,26797,22395,19179,17417,12711,6099.4,290.99,-2930.6,-4686.4,-6987.1,-11272,-14544,-14656,-11339,-7091.9,-5573,-7228.2,-10073,-11764,-12848,-15613,-21966,-29631,-33430,-33304,-31829,-31668,-33901,-34958,-32979,-29716,-27360,-27891,-30335,-32267,-32339,-32572,-34575,-37961,-41115,-40733,-37430,-34996,-35132,-38136,-41782,-42395,-39886,-37890,-38337,-40074,-40808,-40151,-40568,-43461,-47709,-48748,-45645,-41227,-39090,-40115,-42762,-44493,-43363,-40650,-39270,-40225,-41772,-42332,-42314,-42110,-42929,-43799,-41891,-37156,-33423,-32746,-33761,-35020,-33689,-30197,-28092,-27701,-28259,-30328,-32572,-34171,-35453,-35244,-32588,-28661,-24396,-20825,-20194,-21462,-21547,-22091,-22820,-22247,-19292,-16426,-15263,-14911,-15658,-17788,-20060,-20589,-17366,-14631,-14548,-13019,-11011,-8374.8,-5999.1,-1694.6,444.98,-1760,-3814.5,-5524.8,-6615.2,-6373.8,-6457.6,-5581.1,-2105.9,2367.8,5206.6,5608.1,4979.8,3963.1,3719.5,3517.3,2346.2,185.37,-776.57,-94.055,1384.6,2193,1684.5,265.64,232.61,2667.7,6616.5,10128,10849,10724,12862,15413,16288,15935,14093,13294,14044,14542,14325,15258,18938,24082,28704,32110,32146,29849,26917,22450,17774,15560,15853,16696,17956,18779,20690,22283,22408,23685,26891,29465,30423,30643,31393,32034,29998,28085,26768,24450,21572,21744,22640,22789,22861,23619,25276,26814,27874,27961,27110,26282,25240,23420,21527,19540,17157,15277,13631,12632,12920,14595,16701,18664,20413,21155,21354,18502,14613,12121,11753,10973,9358.4,8881.2,9262.6,7952,6654.7,5935.8,5811.3,5672.3,7281.9,9387.3,9187.2,7445.5,6427.4,5374.8,3154.2,-274.62,-2881.1,-4079.2,-5447.9,-6254.2,-6455.6,-6949.1,-7837.9,-7477,-5476.9,-3809.8,-3710.5,-4857.3,-5981.4,-6632.5,-7249.7,-8874.7,-10920,2646.6,1747.6,1531.4,2070.9,2834,3730,4733.1,5651.6,6410.2,7058.2,7778.8,8341.8,8448.2,8135.2,7063.5,5268,3431.8,2086.2,1520.8,1618.6,2018.3,2617.7,3269.2,3748.3,4063.7,4453.5,4989.3,5498.8,5774.5,5855.1,5925.5,5484,3679.8,1667.1,322.62,-67.327,306.06,693.04,691.72,640,690.98,1202.7,1926.1,2453.1,2664.1,2787,2564.1,1855.7,646.65,-948.97,-2178.3,-2908,-2846.6,-2327.1,-1988.1,-1898,-2192.3,-2716.3,-2843.9,-2432.9,-2061.8,-1845.1,-1719.2,-1895.1,-2529.6,-3572.8,-4668.9,-5220.9,-5280.8,-5110.6,-5001.1,-4937.5,-5175.6,-5695.9,-6187.7,-6388.7,-6197,-5930.9,-5898.4,-5971.4,-6110.5,-6386,-7367.6,-8322.2,-8600,-8157.4,-7346.2,-7008.4,-7331,-8001.8,-8745.8,-9090.7,-9297.2,-9406,-9355.4,-9238.9,-9099.3,-9026.4,-9405.7,-9788.8,-9934.8,-9345.4,-8195.5,-7520.6,-7550.8,-8041.1,-8756.8,-9792.9,-10685,-11198,-11368,-11349,-11132,-10216,-9664.2,-10086,-10170,-9569.3,-8519.6,-7661.7,-7363.2,-7520.4,-8219.5,-8947,-9030.6,-8744.4,-8903.1,-9353.4,-9633.1,-9821.2,-9605.1,-9070.1,-8518.6,-7698.1,-6693.5,-5310.8,-4135.7,-3768.6,-4084.7,-4852,-5933.4,-7194.7,-8007.2,-8357.8,-8445.6,-8149.4,-7645.5,-7149.6,-6046.8,-4785.8,-3364.8,-1694.7,-249.98,501.03,629.29,350.87,-568.1,-2257.7,-3901.7,-5038,-5688.8,-5710.7,-5213,-4236.4,-2787.8,-877.08,847.93,2655.5,4348.3,5461.7,6083.3,5873.2,4884.4,3473.2,1957.9,573.1,-757.96,-1748.5,-2060.1,-1596.8,-283.39,1677.2,4377.8,6861.3,8905.8,10143,10655,10308,9282.4,8015.6,6575.5,5086.1,3657.7,2531.3,1958.3,1977.1,2414.8,3537.5,5012.7,6750.5,8965,10740,12011,12646,12526,11554,10152,8519.6,6771.2,4892.2,3708,3198.6,3190.2,4050.1,5540.7,7528.8,9946.4,12411,14343,15342,15100,13829,12204,10421,8238.9,5655.8,3768.2,2949.8,2786.2,3012.9,3833.1,5522.6,8018.7,10506,12616,13671,13324,12525,11544,10268,8602.1,6133.2,3864.2,2277.6,1023,231.93,157.26,1171.6,3321.5,6220.2,8883.7,10183,10222,9450.4,8120.1,6812.1,5431.8,3787.8,1406.2,-936.02,-2611.4,-3513.6,-3839.4,-3600.4,-2416.4,-335.07,2194.8,4221.6,4997.8,4608.7,3733.2,2574.3,1029.9,-910.44,-3024.1,-5162.2,-6739.3,-7454.4,-8074.2,-8653.4,-8409.2,-7261.9,-5321,-2840.8,-1239.5,-992,-1889.3,-3323.1,-4738.3,-5806.1,-7064.4,-8393.6,-9901.7,-11359,-12157,-12834,-13287,-13062,-12097,-10526,-8782.2,-7800.5,-7932.8,-8737.5,-9528.7,-10112,-10871,-11949,-13328,-14952,-16516,-17579,-18118,-17768,-15943,-13515,-11679,-10453,-10141,-10331,-11184,-12470,-13598,-14161,-14785,-15705,-16558,-17167,-17318,-17060,-17031,-16312,-14725,-12948,-11953,-12331,-13994,-14912,-15252,-15041,-13366,-12004,-11918,-12593,-13240,-13697,-13879,-13384,-12181,-10913,-10039,-9859.7,-10288,-11048,-11319,-10641,-9598.4,-8217.7,-6363.2,-4530.4,-3950.2,-5316.1,-7673.3,-8673.1,-8553.5,-7784.2,-6850.3,-6560.7,-7089.8,-7942.1,-7967.5,-7052.3,-5653.1,-4418.1,-3507,-2616.7,-1493.1,-590.96,-530.4,-814.2,-796.58,-506.74,117.35,713.07,1356.3,859.36,-505,-1307.6,-223.1,2065.8,3898.3,4781.2,5502.6,6111.5,6674,7016.7,7524.1,8240.1,8049.2,7158.5,5939.6,5247.3,4967,4598.9,5168.1,5867.2,7558.9,10039,11562,12272,13205,14153,14496,14179,14010,14512,14182,13569,12460,11095,10837,11079,12245,14117,16588,19141,20901,21536,21654,21375,20657,19371,18164,16531,13665,11041,9248.6,9066.1,10406,12611,15068,17626,19963,21781,22952,23061,22157,20686,18436,15475,12445,9386.1,7042.6,5953.4,5957.8,7241.4,9727.3,12652,15307,17519,19256,20166,19934,18507,15697,11806,7741.7,3526.5,131.4,-1881.3,-2387.4,-926.77,1294.2,3647.3,6220.3,8937.9,11290,12839,13372,13000,11111,7713.8,3433,-1305.7,-5830.7,-9181.3,-10696,-10681,-9689.5,-7935.1,-5314.1,-2434.2,282.67,2139.7,2680.5,2377,1110.7,-1458.1,-5402.6,-10072,-13931,-16428,-18002,-17803,-17033,-17349,-17429,-15344,-12623,-10577,-8776.7,-7665.5,-7212.4,-7245.5,-9608.2,-14739,-20558,-25844,-29672,-31321,-30201,-26846,-23839,-21477,-19667,-17672,-14745,-13098,-13317,-14116,-15950,-19285,-24590,-29719,-33585,-36146,-35749,-34332,-32703,-30561,-27590,-24419,-21953,-19312,-16787,-15416,-14961,-15897,-20020,-25444,-30265,-33428,-34202,-33187,-31260,-29200,-27014,-24316,-20947,-17651,-15269,-13934,-13223,-13504,-15310,-18583,-22463,-25629,-27090,-26486,-24667,-22830,-21491,-19826,-17260,-14275,-11214,-8510.2,-6530.3,-5721,-5994.6,-7930.8,-11460,-14890,-16560,-16187,-14543,-12606,-10458,-8363.9,-6240.3,-3961.3,-1414.6,1564.6,4184.9,5793.9,6407.4,5841.9,3677,972.24,-779.64,-892.94,864.23,3656.6,6269.5,8399,9782.5,10953,12426,13939,15165,16385,17698,18472,17454,15164,13203,12878,14425,17707,21112,22656,23290,23336,23397,24020,25078,26071,27166,27844,28106,27746,26801,26724,27709,28949,31179,33901,35568,35536,34114,32906,32609,32118,31924,32164,32671,33851,33547,31755,31275,34408,38766,41134,41400,39511,36609,34163,32376,31087,30428,29966,30008,30003,30095,30153,30707,32532,35516,38350,39932,38993,35384,30230,25662,22502,20459,19258,18171,17339,16875,16696,17560,19832,23016,26475,29222,30404,27990,22037,14986,8693.6,4217.8,1135.6,-998.71,-2917.6,-4097.9,-3989.2,-3213.2,-557.98,3685,9201.4,13650,14598,12107,6473.4,-1164.6,-9087,-15882,-21632,-25907,-28487,-30157,-30632,-29941,-28402,-25982,-19990,-11251,-7844.2,-10418,-16025,-22641,-29732,-36642,-46140,-54905,-60274,-63066,-60636,-56930,-52246,-43090,-31863,-23880,-24626,-31229,-34938,-37864,-45391,-57199,-71482,-84970,-90099,-87177,-80391,-73779,-64798,-57568,-54925,-55291,-50506,-43344,-42207,-48709,-56346,-63497,-69227,-76995,-82889,-83940,-86162,-86898,-85805,-83307,-78758,-66442,-53204,-44409,-44258,-48347,-51115,-53667,-58573,-67851,-76289,-79277,-81175,-84777,-86698,-84868,-78144,-65744,-49218,-32902,-19534,-11032,-7805.3,-9561.2,-18419,-28926,-40873,-54464,-65475,-71907,-73117,-66298,-52222,-35575,-19836,-4943.6,7261.6,16855,23754,23590,19451,12721,4014.1,-5260.4,-14139,-22104,-29096,-31426,-23764,-6787.6,16090,42110,65703,80329,86979,90981,96207,1.0155e+05,94828,79309,66659,57252,50900,51021,58476,75337,1.1064e+05,1.4644e+05,1.8211e+05,2.2722e+05,