-8.9017,-8.5381,-10.192,-11.135,-11.573,-12.502,-14.98,-15.593,-15.326,-14.409,-13.742,-13.569,-13.5,-12.221,-11.677,-10.747,-7.8278,-4.4792,-2.8977,0.54205,2.8852,4.9726,7.4145,9.0642,9.7191,11.062,11.362,12.346,12.302,12.956,13.58,13.541,13.883,13.648,13.035,12.438,12.935,13.932,14.848,14.838,14.292,14.131,13.808,14.044,13.703,12.632,10.757,8.9475,6.6485,1.6879,2.0352,4.6395,3.9583,-5.4145,-4.4851,-9.0284,-13.745,-17.502,-22.355,-19.023,-16.201,-19.682,-20.036,-9.2073,-3.2837,-2.5202,-3.4901,-3.2659,-0.62597,0.897,0.88456,-0.58972,-1.5207,-0.44951,0.88838,0.69064,0.4415,0.36924,0.17169,-0.0086759,-0.45441,-0.41593,-0.48361,-0.74783,-1.2018,-1.712,-1.2188,-0.4405,-0.032537,-0.0043447,-0.010286,0.19943,0.43793,0.54853,0.34336,-0.074362,-0.49591,-0.61896,-0.57046,-0.88846,-1.5873,-1.9917,-1.686,-1.0616,-0.41005,0.0027998,0.22392,0.37341,0.6543,1.0375,1.068,0.7436,0.29127,-0.004481,-0.07625,-0.16469,-0.70289,-1.214,-1.5972,-1.3191,-0.72794,-0.036685,0.36789,0.50478,0.72819,1.011,1.2264,1.1707,0.8532,0.46441,0.18615,0.042999,-0.18686,-0.56069,-1.0781,-1.2513,-0.85873,-0.18974,0.23033,0.43039,0.60546,0.82101,1.0136,1.1098,1.008,0.84622,0.58809,0.44832,0.36391,-0.033307,-0.55251,-0.93913,-0.9632,-0.64819,-0.19952,0.041852,0.31902,0.47249,0.7025,0.8384,0.86946,0.83797,0.69852,0.44463,0.29446,0.18101,-0.051136,-0.4583,-0.78933,-0.80798,-0.57041,-0.042875,0.34114,0.41203,0.3482,0.42789,0.63141,0.70852,0.62021,0.58406,0.45924,0.39357,0.13847,-0.24186,-0.67048,-0.91773,-0.85314,-0.71254,-0.36992,0.017374,0.35312,0.18248,0.040833,0.13334,-0.79362,-1.7623,-2.1616,-1.8719,-1.9808,-0.48494,1.4934,1.7012,1.9403,1.4908,0.94423,1.6841,2.0921,1.6585,1.6497,1.7474,1.6366,2.4531,2.6737,2.6959,2.2696,1.8128,1.4396,1.0014,0.3089,-0.24934,-0.58421,-0.63358,-0.33056,-0.010113,0.13337,0.25512,0.49239,0.69375,0.73346,0.68342,0.57118,0.49757,0.42658,0.22581,-0.058336,-0.32042,-0.39909,-0.20895,-0.024738,0.080082,-0.14225,-0.10552,-0.078906,0.083103,0.30954,0.29966,0.19298,0.12824,0.13612,-0.039437,-0.21172,-0.26419,-0.38499,-0.38209,-0.35953,-0.28135,-0.29446,-0.3637,-0.69684,-0.90576,-0.95784,-0.82185,-0.61503,-0.52225,-0.54721,-0.68869,-0.91763,-1.0209,-1.2032,-1.4631,-1.5759,-1.417,-1.2532,-1.0359,-0.82951,-0.75767,-0.61566,-0.4868,-0.32628,-0.074144,0.015815,0.028474,0.090853,0.23084,0.15302,0.024341,-0.04262,-0.084683,-0.053836,0.0080898,0.12052,0.070594,0.018853,-0.013811,0.10259,0.20563,0.3782,0.38452,0.31933,0.16854,0.06794,-0.070559,-0.3094,-0.49989,-0.66822,-0.76291,-0.72083,-0.63337,-0.70055,-0.86251,-0.79936,-0.69533,-0.55066,-0.38493,-0.24201,-0.26447,-0.27822,-0.28329,-0.3745,-0.4671,-0.55127,-0.49766,-0.52701,-0.49983,-0.46946,-0.50643,-0.54566,-0.53522,-0.41572,-0.27443,-0.12542,-0.072054,-0.0095174,-0.003328,-0.03178,-0.15862,-0.34219,-0.51729,-0.58314,-0.50328,-0.36755,-0.30895,-0.23517,-0.26278,-0.2348,-0.10814,-0.017006,0.034268,0.042796,0.11443,0.17805,0.19828,0.29019,0.089215,-0.13749,-0.127,-0.15792,-0.18014,-0.16569,0.10366,0.7736,0.93062,1.0924,1.1674,1.1239,1.0076,1.0117,0.93931,0.84641,0.96352,0.7815,0.47058,0.064144,0.043585,0.025668,0.037565,0.18898,0.25582,0.41544,0.65007,0.74464,0.79368,0.71468,0.73077,0.74706,0.61787,0.48545,0.35676,0.27185,0.29762,0.41265,0.40219,0.37085,0.32632,0.35661,0.4061,0.47991,0.59196,0.5816,0.57398,0.64347,0.71185,0.72879,0.6513,0.4296,0.15385,-0.10014,-0.1171,-0.11748,-0.2363,-0.25059,-0.18059,-0.051218,0.12095,0.20927,0.14458,0.1384,0.22533,0.37882,0.38374,0.28029,0.084432,-0.057786,-0.12458,-0.11594,-0.11641,-0.17349,-0.23824,-0.20586,-0.15324,0.0087976,0.07141,0.13892,0.14033,0.20868,0.29525,0.28214,0.11382,-0.085442,-0.15893,-0.14536,-0.0025764,0.025739,-0.054038,-0.16848,-0.2098,-0.15651,-0.12551,-0.12825,-0.14533,-0.089568,0.075297,0.16367,0.12757,0.01597,-0.09904,-0.20899,-0.11454,-0.035417,0.085128,0.019288,-0.023084,-0.017738,0.033474,0.11689,0.090131,0.07168,-0.0020456,0.07058,0.11452,0.01413,-0.14846,-0.39062,-0.41229,-0.24377,-0.09024,-0.11666,-0.24437,-0.43837,-0.4238,-0.3792,-0.35912,-0.40376,-0.41273,-0.34519,-0.13927,-0.029749,-0.11404,-0.31427,-0.47915,-0.41661,-0.22693,-0.13118,-0.15224,-0.257,-0.36964,-0.34747,-0.1978,-0.12702,-0.14057,-0.24298,-0.14675,-0.049813,-0.035559,-0.056877,-0.24058,-0.28164,-0.25319,-0.13855,-0.11215,-0.16436,-0.31497,-0.3387,-0.31376,-0.29748,-0.35785,-0.36691,-0.28978,-0.13009,0.0056112,0.042244,-0.098796,-0.25306,-0.40217,-0.38947,-0.28985,-0.25964,-0.29573,-0.3702,-0.42282,-0.47537,-0.43614,-0.42591,-0.41891,-0.35236,-0.17698,-0.047719,0.014034,-0.07621,-0.19516,-0.19858,-0.10583,-0.034671,-0.075794,-0.20201,-0.34018,-0.42684,-0.37441,-0.38513,-0.40876,-0.33938,-0.21068,-0.033566,0.20583,0.27333,0.20609,0.11768,0.047645,0.043375,0.08101,0.017291,-0.11125,-0.24408,-0.29403,-0.3284,-0.26091,-0.15428,-0.1397,0.0013119,0.14159,0.30261,0.42507,0.41929,0.27071,0.18682,0.18852,0.23672,0.12439,0.037178,-0.13609,-0.19404,-0.2305,-0.18787,-0.17112,-0.14155,-0.039725,0.059507,0.27294,0.34408,0.35957,0.23367,0.19055,0.15606,0.22454,0.23122,0.14338,0.033434,-0.071512,-0.05753,0.090366,0.20615,0.27486,0.36762,0.51286,0.67804,0.7776,0.67063,0.54019,0.36693,0.34492,0.38091,0.39412,0.29571,0.089349,0.024467,0.067613,0.21006,0.33391,0.38567,0.43024,0.48721,0.69595,0.77236,0.70409,0.54107,0.38982,0.28785,0.26409,0.24004,0.11746,-0.029161,-0.074921,0.053368,0.22107,0.29263,0.31472,0.40139,0.65879,0.91448,1.0561,0.86979,0.5795,0.35742,0.35049,0.43077,0.43346,0.23613,0.08227,0.080049,0.225,0.36931,0.3642,0.31598,0.43045,0.6791,0.93366,0.98043,0.71843,0.34187,0.1508,0.18962,0.21309,0.1448,-0.051858,-0.18934,-0.12326,0.073979,0.20145,0.17794,0.15183,0.32725,0.6951,0.91227,0.85317,0.49352,0.089272,-0.21451,-0.2321,-0.16572,-0.2063,-0.43014,-0.44022,-0.21442,0.09351,0.28331,0.27352,0.2616,0.49249,0.81943,1.023,0.73264,0.19742,-0.30086,-0.45161,-0.33069,-0.287,-0.46558,-0.61541,-0.57992,-0.26268,-0.00023581,-0.040665,-0.18076,-0.13446,0.21465,0.69601,0.75008,0.31285,-0.40641,-0.86899,-0.9204,-0.757,-0.72526,-0.95753,-1.1808,-1.0713,-0.76269,-0.58268,-0.64839,-0.80699,-0.65436,-0.10534,0.4017,0.39665,-0.15635,-0.85947,-1.1512,-1.0509,-0.83836,-0.8786,-1.1394,-1.2379,-0.96818,-0.66388,-0.65415,-0.89379,-1.0191,-0.71981,-0.15089,0.23204,-0.064667,-0.86683,-1.6367,-2.0199,-2.1643,-2.8638,-3.9381,-4.8765,-6.6099,-7.258,-7.3636,-7.0928,-8.895,-8.8869,-8.7256,-7.5763,-7.0472,-8.0536,-9.0474,-8.8871,-7.4973,-5.4718,-1.6777,-0.36382,0.68216,2.7018,3.622,4.2778,5.255,6.3142,6.8567,8.093,8.8668,9.0479,9.0336,8.9571,8.9653,9.4416,9.9872,10.019,9.7776,9.8323,10.507,11.218,11.509,11.365,11.14,11.413,12.071,12.496,12.172,10.86,8.6101,7.5496,6.2027,5.5303,4.6315,2.349,0.45041,-4.4614,-6.8705,-9.5383,-13.088,-14.07,-15.55,-24.545,-39.46,-20.953,-4.6021,-3.0768,-6.0712,-9.6016,-12.876,-14.72,-14.311,-11.516,-10.736,-10.049,-10.282,-9.9662,-7.9278,-6.0164,-2.6192,-1.2632,-0.51789,1.3774,2.1849,5.0497,6.3644,7.1315,7.6852,7.9254,8.6839,9.53,10.387,10.405,10.486,11.435,12.46,13.404,13.15,12.217,11.17,10.333,10.393,10.481,10.046,9.0698,8.6335,8.5381,7.9873,7.6561,7.0563,6.5971,6.3815,6.6939,6.286,4.1235,2.2164,0.88269,0.42876,0.6469,-0.79765,-1.6322,-3.2788,-3.4833,-5.3096,-6.2466,-7.6435,-7.8117,-7.4231,-6.4028,-6.1714,-7.2249,-7.948,-8.7305,-16.083,-20.239,-11.311,-5.5354,-1.2829,-2.4071,-4.0155,-6.7722,-6.9921,-7.5317,-8.4548,-10.758,-11.411,-12.358,-12.688,-13.382,-13.819,-12.914,-11.26,-10.227,-8.3181,-7.501,-5.9132,-5.385,-1.3751,0.65168,0.16854,2.5791,3.9614,5.4059,6.8849,6.9256,6.2481,6.2733,6.8389,7.5336,8.2294,9.0243,9.4765,10.049,10.914,11.253,11.113,10.884,10.892,11.376,11.683,11.494,10.405,9.2379,8.2374,8.0331,8.1321,7.6406,7.2962,7.1444,6.9596,6.315,5.8013,5.049,4.006,3.8331,3.6892,2.6944,1.3074,0.062889,-0.73455,-1.1096,-1.91,-4.0678,-5.4126,-7.1962,-6.5355,-5.3985,-3.7747,-4.5562,-7.5634,-8.5244,-8.3761,-9.6229,-17.29,-17.837,-11.934,-2.9493,-2.4208,-3.079,-6.392,-7.8293,-7.453,-6.5143,-5.7719,-6.2888,-8.2826,-9.3233,-9.7958,-9.9641,-10.218,-11.966,-13.122,-14.148,-14.173,-13.169,-11.819,-9.6213,-7.891,-6.5374,-5.139,-3.0498,-2.2193,-0.76624,0.45489,1.954,4.1471,5.8617,6.193,6.624,6.6716,7.1665,8.0881,9.7711,10.639,11.854,12.948,13.555,13.954,13.945,13.944,14.089,14.487,14.868,14.619,14.055,12.987,12.192,11.373,11.198,10.942,11.054,11.233,11.709,12.23,12.579,12.244,11.354,9.6984,8.9299,8.9634,8.4438,7.2268,5.035,1.7092,0.061128,-2.7428,-8.416,-11.712,-21.777,-24.339,-25.328,-23.139,-16.035,-11.868,-11.717,-11.27,-9.2453,-6.8492,-2.2105,-0.88603,-1.0179,-0.9452,-0.49506,-0.10925,0.054144,-0.25467,-0.85641,-0.95856,-1.2109,-1.3521,-1.3544,-0.78841,-0.337,-0.19139,-0.45514,-0.96093,-1.4334,-1.6712,-1.7552,-1.5762,-1.362,-1.2734,-0.98165,-0.70461,-0.75496,-1.0173,-1.3521,-1.2828,-0.74617,-0.52079,-0.6618,-0.98335,-1.2707,-1.4116,-1.4191,-1.224,-1.0795,-0.79261,-0.41763,0.035704,0.064857,-0.20507,-0.46069,-0.6227,-0.41221,-0.30467,-0.28145,-0.4666,-0.79108,-0.95799,-1.0315,-0.92267,-0.72628,-0.45057,-0.13495,0.14435,0.30242,0.12702,-0.16595,-0.33634,-0.33339,-0.33717,-0.23628,-0.28167,-0.45516,-0.70311,-0.79802,-0.57464,-0.45351,-0.25121,0.12855,0.60496,0.89585,0.85565,0.69058,0.4295,0.17938,0.083785,0.051734,0.053867,-0.06583,-0.25407,-0.36917,-0.45377,-0.62135,-0.49807,-0.31884,0.0058398,0.1548,0.23621,-0.042467,-0.45907,-0.83738,-1.3593,-1.4769,-1.3491,-1.126,-0.69048,-0.70362,-0.65164,-0.2282,0.10741,0.9269,1.4385,2.3451,2.8942,3.358,3.9433,4.2016,3.9969,3.6046,2.9674,2.6321,2.5291,2.5267,2.5581,2.2914,2.0866,1.9236,1.722,1.6048,1.6895,1.5792,1.1667,0.35051,-1.007,-1.6818,-2.4767,-1.9799,-1.1214,0.7878,1.0737,0.72175,0.53367,0.28881,0.204,-0.66618,-0.92301,-0.96159,-0.90227,-0.9816,-1.1586,-1.1208,-0.59613,-0.37051,-0.28358,-0.31408,-0.33194,-0.24042,-0.07102,0.061751,0.15086,0.2277,0.45295,0.57232,0.69904,0.54388,0.4116,0.18285,0.057528,-0.0058649,-0.051849,-0.14181,-0.22042,-0.25487,-0.24119,-0.19297,-0.18092,-0.17759,-0.0038392,0.23975,0.52072,0.67858,0.6407,0.45703,0.35928,0.32306,0.29445,0.11674,-0.24139,-0.40602,-0.32768,-0.18067,-0.11904,-0.12755,-0.15853,-0.11807,0.054637,0.20706,0.2099,0.086003,-0.073786,-0.11325,-0.07838,-0.20995,-0.39877,-0.61167,-0.56893,-0.49563,-0.46164,-0.41411,-0.43492,-0.42081,-0.40046,-0.24375,-0.11504,0.013684,-0.082941,-0.12026,0.051459,0.13095,-0.085627,-0.3077,-0.41489,-0.49456,-0.44076,-0.36108,-0.17826,-0.021291,0.16375,0.26957,0.35316,0.19196,0.0071019,-0.22236,-0.39404,-0.53036,-0.43341,-0.4966,-0.57504,-0.75232,-0.76423,-0.67047,-0.52233,-0.44059,-0.36391,-0.2836,-0.18242,-0.14441,-0.17012,-0.17077,-0.094268,0.20663,0.39046,0.3423,0.24518,0.26112,0.22033,0.30152,0.40344,0.29926,0.17056,0.022959,-0.010191,0.028237,-0.17234,-0.26907,-0.33324,-0.39677,-0.40612,-0.46687,-0.54928,-0.61452,-0.71958,-0.66471,-0.39793,-0.22548,-0.089804,-0.0013289,0.043676,0.15806,0.19829,0.15444,-0.10331,-0.2143,-0.24039,-0.23781,-0.2443,-0.38786,-0.52636,-0.62251,-0.48441,-0.39751,-0.24862,-0.20683,-0.24492,-0.28304,-0.26705,-0.10495,-0.018754,0.34875,0.42647,0.58273,0.61714,0.54464,0.23372,-0.18554,-0.54834,-0.54049,-0.42045,-0.29144,-0.0030055,0.14083,0.32326,0.6953,0.82718,0.94944,0.92011,0.76251,0.57861,0.40276,0.19673,0.043204,0.11558,0.16675,0.33861,0.47792,0.54605,0.74112,0.75823,0.68874,0.50013,0.085277,-0.087162,-0.27987,-0.26845,-0.19118,-0.11818,0.012134,-0.12403,-0.2537,-0.18252,-0.098566,0.026412,0.077363,0.066486,-0.087951,-0.14661,-0.35154,-0.41715,-0.48752,-0.42819,-0.26365,-0.12522,0.12166,0.33667,0.34016,0.34275,0.25935,0.2215,0.21435,0.13497,0.072028,0.046355,0.045537,0.030406,0.062831,-6.5143,-5.7719,-6.2888,-8.2826,-9.3233,-9.7958,-9.9641,-10.218,-11.966,-13.122,-14.148,-14.173,-13.169,-11.819,-9.6213,-7.891,-6.5374,-5.139,-3.0498,-2.2193,-0.76624,0.45489,1.954,4.1471,5.8617,6.193,6.624,6.6716,7.1665,8.0881,9.7711,10.639,11.854,12.948,13.555,13.954,13.945,13.944,14.089,14.487,14.868,14.619,14.055,12.987,12.192,11.373,11.198,10.942,11.054,11.233,11.709,12.23,12.579,12.244,11.354,9.6984,8.9299,8.9634,8.4438,7.2268,5.035,1.7092,0.061128,-2.7428,-8.416,-11.712,-21.777,-24.339,-25.328,-23.139,-16.035,-11.868,-11.717,-11.27,-9.2453,-6.8492,-2.2105,-0.88603,-1.0179,-0.9452,-0.49506,-0.10925,0.054144,-0.25467,-0.85641,-0.95856,-1.2109,-1.3521,-1.3544,-0.78841,-0.337,-0.19139,-0.45514,-0.96093,-1.4334,-1.6712,-1.7552,-1.5762,-1.362,-1.2734,-0.98165,-0.70461,-0.75496,-1.0173,-1.3521,-1.2828,-0.74617,-0.52079,-0.6618,-0.98335,-1.2707,-1.4116,-1.4191,-1.224,-1.0795,-0.79261,-0.41763,0.035704,0.064857,-0.20507,-0.46069,-0.6227,-0.41221,-0.30467,-0.28145,-0.4666,-0.79108,-0.95799,-1.0315,-0.92267,-0.72628,-0.45057,-0.13495,0.14435,0.30242,0.12702,-0.16595,-0.33634,-0.33339,-0.33717,-0.23628,-0.28167,-0.45516,-0.70311,-0.79802,-0.57464,-0.45351,-0.25121,0.12855,0.60496,0.89585,0.85565,0.69058,0.4295,0.17938,0.083785,0.051734,0.053867,-0.06583,-0.25407,-0.36917,-0.45377,-0.62135,-0.49807,-0.31884,0.0058398,0.1548,0.23621,-0.042467,-0.45907,-0.83738,-1.3593,-1.4769,-1.3491,-1.126,-0.69048,-0.70362,-0.65164,-0.2282,0.10741,0.9269,1.4385,2.3451,2.8942,3.358,3.9433,4.2016,3.9969,3.6046,2.9674,2.6321,2.5291,2.5267,2.5581,2.2914,2.0866,1.9236,1.722,1.6048,1.6895,1.5792,1.1667,0.35051,-1.007,-1.6818,-2.4767,-1.9799,-1.1214,0.7878,1.0737,0.72175,0.53367,0.28881,0.204,-0.66618,-0.92301,-0.96159,-0.90227,-0.9816,-1.1586,-1.1208,-0.59613,-0.37051,-0.28358,-0.31408,-0.33194,-0.24042,-0.07102,0.061751,0.15086,0.2277,0.45295,0.57232,0.69904,0.54388,0.4116,0.18285,0.057528,-0.0058649,-0.051849,-0.14181,-0.22042,-0.25487,-0.24119,-0.19297,-0.18092,-0.17759,-0.0038392,0.23975,0.52072,0.67858,0.6407,0.45703,0.35928,0.32306,0.29445,0.11674,-0.24139,-0.40602,-0.32768,-0.18067,-0.11904,-0.12755,-0.15853,-0.11807,0.054637,0.20706,0.2099,0.086003,-0.073786,-0.11325,-0.07838,-0.20995,-0.39877,-0.61167,-0.56893,-0.49563,-0.46164,-0.41411,-0.43492,-0.42081,-0.40046,-0.24375,-0.11504,0.013684,-0.082941,-0.12026,0.051459,0.13095,-0.085627,-0.3077,-0.41489,-0.49456,-0.44076,-0.36108,-0.17826,-0.021291,0.16375,0.26957,0.35316,0.19196,0.0071019,-0.22236,-0.39404,-0.53036,-0.43341,-0.4966,-0.57504,-0.75232,-0.76423,-0.67047,-0.52233,-0.44059,-0.36391,-0.2836,-0.18242,-0.14441,-0.17012,-0.17077,-0.094268,0.20663,0.39046,0.3423,0.24518,0.26112,0.22033,0.30152,0.40344,0.29926,0.17056,0.022959,-0.010191,0.028237,-0.17234,-0.26907,-0.33324,-0.39677,-0.40612,-0.46687,-0.54928,-0.61452,-0.71958,-0.66471,-0.39793,-0.22548,-0.089804,-0.0013289,0.043676,0.15806,0.19829,0.15444,-0.10331,-0.2143,-0.24039,-0.23781,-0.2443,-0.38786,-0.52636,-0.62251,-0.48441,-0.39751,-0.24862,-0.20683,-0.24492,-0.28304,-0.26705,-0.10495,-0.018754,0.34875,0.42647,0.58273,0.61714,0.54464,0.23372,-0.18554,-0.54834,-0.54049,-0.42045,-0.29144,-0.0030055,0.14083,0.32326,0.6953,0.82718,0.94944,0.92011,0.76251,0.57861,0.40276,0.19673,0.043204,0.11558,0.16675,0.33861,0.47792,0.54605,0.74112,0.75823,0.68874,0.50013,0.085277,-0.087162,-0.27987,-0.26845,-0.19118,-0.11818,0.012134,-0.12403,-0.2537,-0.18252,-0.098566,0.026412,0.077363,0.066486,-0.087951,-0.14661,-0.35154,-0.41715,-0.48752,-0.42819,-0.26365,-0.12522,0.12166,0.33667,0.34016,0.34275,0.25935,0.2215,0.21435,0.13497,0.072028,0.046355,0.045537,0.030406,0.062831,0.16588,0.27309,0.35137,0.31697,0.29695,0.25931,0.24335,0.25618,0.23893,0.26338,0.28594,0.27283,0.18905,0.1397,0.1293,0.1286,0.18866,0.27407,0.33671,0.2798,0.27609,0.3067,0.32854,0.24508,0.022213,-0.11946,-0.14064,-0.12288,-0.18878,-0.18291,-0.21105,-0.21602,-0.22858,-0.18092,-0.13013,-0.08414,0.038504,0.15221,0.1251,0.089182,0.078887,0.074302,0.15518,0.17331,0.18765,0.14346,0.048457,-0.060331,-0.12269,-0.06323,-0.037061,0.0039292,-0.0065236,0.027438,0.0089998,0.0042509,0.010239,0.027585,-0.068043,-0.17538,-0.19101,-0.14713,-0.055413,-0.014879,-0.080319,-0.071554,0.05698,0.24268,0.33703,0.26919,0.15666,0.19733,0.21342,0.21409,0.10091,-0.080781,-0.14579,-0.22907,-0.30853,-0.4324,-0.47223,-0.43718,-0.43136,-0.24455,-0.11377,-0.080147,-0.11804,-0.13503,-0.14792,-0.090678,-0.027746,-0.15796,-0.22199,-0.23522,-0.20539,-0.182,-0.16539,-0.23719,-0.28708,-0.28869,-0.2116,-0.17884,-0.16815,-0.1288,-0.12153,-0.038343,-0.027132,-0.10312,-0.20558,-0.29948,-0.29868,-0.26663,-0.25925,-0.25351,-0.30561,-0.28142,-0.22426,-0.12463,-0.082056,-0.085606,-0.032156,0.077419,0.20587,0.31229,0.29298,0.18826,0.070633,0.0082455,-0.0060232,-0.090268,-0.15439,-0.21732,-0.24149,-0.17689,-0.14141,-0.087006,-0.057979,-0.05812,0.06482,0.14706,0.19413,0.12027,-0.016364,-0.077742,-0.021606,-0.08537,-0.21154,-0.26041,-0.21888,-0.14714,-0.060049,0.02269,0.018973,0.021103,0.11585,0.2484,0.27335,0.25749,0.17762,0.09412,0.0084002,-0.014422,-0.087717,-0.17218,-0.16325,-0.16702,-0.13209,-0.030703,0.019089,0.046759,0.063834,0.21203,0.18133,0.22134,0.2269,0.15104,0.045337,0.0080932,0.019682,0.059171,0.060957,0.059025,0.026179,0.0092561,0.041618,0.074395,0.066157,0.09884,0.17283,0.20311,0.21994,0.25681,0.23174,0.21949,0.22106,0.15387,0.040644,0.021877,0.00041293,0.0064669,0.0090539,0.01386,-0.041018,-4.3356e-05,0.043033,0.14479,0.19226,0.19266,0.15416,0.10533,0.064853,0.070245,0.076875,0.014401,-0.023571,0.0035357,0.074335,0.045702,0.031478,0.017008,-0.004845,0.039479,0.16424,0.19158,0.18584,0.15821,0.12385,0.088993,0.015959,-0.010011,-0.016155,0.00030017,0.024385,0.033876,0.02044,0.03779,0.031715,0.012873,0.013354,0.079539,0.094145,0.13199,0.15809,0.095067,0.062176,0.031438,-0.020015,0.031008,0.053532,0.1021,0.04795,0.019792,-0.037687,-0.069216,-0.050433,0.004238,0.096571,0.109,0.081233,0.082051,0.024195,-0.0072697,-0.028777,-0.022942,0.0024675,0.05853,0.0069927,0.01089,-0.059359,-0.06774,-0.058852,-0.085893,-0.085006,-0.079711,-0.023768,-0.031766,-0.021688,-0.039388,-0.066579,-0.037532,-0.013341,0.055388,0.056233,0.020553,-0.025041,-0.0096612,-0.085298,-0.079553,-0.089046,-0.10352,-0.13163,-0.059852,0.020513,0.033816,0.015882,0.076215,0.089314,0.087707,0.071222,0.010208,-0.043517,-0.087774,-0.13286,-0.12449,-0.17031,-0.19963,-0.18224,-0.12798,-0.072959,-0.058287,-0.085995,-0.063201,-0.10527,-0.034314,-0.032012,-0.026875,0.001865,-0.059957,-0.053469,-0.049381,-0.044098,-0.14472,-0.15533,-0.13442,-0.17044,-0.13882,-0.12686,-0.080922,-0.052164,-0.037018,0.0084025,0.077531,0.058792,0.034257,-0.023813,-0.038709,-0.026139,-0.072913,-0.12145,-0.17546,-0.14077,-0.081439,-0.040899,-0.030433,-0.066306,-0.026705,0.0061872,0.1302,0.18562,0.18141,0.070662,0.026745,-0.0094304,-0.036832,-0.065161,-0.13266,-0.18414,-0.12864,-0.051489,-0.010591,-0.0093721,0.028825,0.043664,0.089632,0.13299,0.090273,0.027823,-0.040004,-0.063592,-0.048507,-0.048099,-0.10006,-0.17853,-0.14278,-0.14244,-0.015678,0.056919,0.12282,0.052227,0.046462,0.058205,0.0072745,-0.024897,-0.057503,-0.071774,-0.074526,-0.056522,-0.036254,-0.034831,-0.074345,-0.13139,-0.033097,0.055957,0.077135,0.058211,0.074077,0.079443,0.086373,0.091481,0.0008073,-0.029138,-0.022267,0.026034,0.075881,0.034542,-0.051396,-0.08031,-0.075103,-0.00322,0.0006267,0.012084,0.065126,0.090666,0.13577,0.16836,0.15077,0.12833,0.07265,0.023703,0.044107,0.0045351,-0.021949,-0.11044,-0.15985,-0.16899,-0.093466,0.049991,0.085164,0.14415,0.21664,0.25848,0.23353,0.19816,0.099164,-0.010484,-0.041164,-0.10111,-0.046122,-0.12096,-0.088145,-0.11572,-0.075475,-0.0049612,0.049427,0.077178,0.062246,0.063622,0.09502,0.12527,0.080819,0.032484,0.057863,0.076669,0.12392,0.083629,-0.033756,-0.17265,-0.18027,-0.13449,-0.075135,0.00087574,0.025421,-0.09909,-0.065474,0.068535,0.049098,0.0059606,-0.063273,-0.058581,0.03621,0.030896,-0.055433,-0.09221,-0.098575,-0.013948,0.068108,0.14886,0.17969,0.20376,0.34941,0.41371,0.41592,0.38979,0.39214,0.38158,0.17107,0.18629,0.12959,0.07622,0.017845,0.25572,0.076834,-0.11571,-0.048096,0.093701,0.26985,0.18117,-0.15275,-0.31351,-0.33746,-0.27645,-0.1576,-0.021122,-0.053875,-0.1177,-0.16479,-0.054525,-0.07027,-0.098886,-0.11202,-0.054862,0.0051224,0.026516,0.16025,0.23702,0.37709,0.44084,0.43998,0.34168,0.31854,0.31681,0.29238,0.21843,0.15164,0.14012,0.068244,0.078403,0.16742,0.032766,-0.22117,-0.28901,-0.372,-0.45875,-0.42056,-0.36994,-0.43127,-0.45698,-0.46204,-0.40462,-0.23398,-0.25291,-0.34191,-0.31134,-0.23635,-0.18721,-0.096023,-0.014911,-0.056738,0.093449,0.12965,0.18092,0.27634,0.25,0.25409,0.36572,0.51766,0.50859,0.49103,0.35041,0.21815,0.13456,0.10155,0.072361,0.030402,-0.05563,-0.056275,-0.081953,-0.21341,-0.23658,-0.23037,-0.26214,-0.25394,-0.24477,-0.24795,-0.27119,-0.30555,-0.41057,-0.49797,-0.53603,-0.53926,-0.51129,-0.40126,-0.31735,-0.21494,-0.15314,0.0083711,0.087774,-0.020247,-0.037217,0.021466,0.055926,0.022233,-0.02214,-0.092606,-0.17892,-0.18484,-0.12338,-0.099295,0.01367,-0.11691,-0.12575,-0.029938,0.048861,0.050232,-0.0068232,-0.04858,-0.098788,-0.1505,-0.082879,-0.094974,-0.12798,-0.14341,-0.079488,-0.060484,-0.19056,-0.2538,-0.22195,-0.15747,-0.11046,-0.11591,-0.10763,-0.10983,-0.13666,-0.15438,-0.17912,-0.2349,-0.28863,-0.13021,-0.15017,-0.13333,-0.0037181,0.10473,0.093172,0.12993,-0.0044709,-0.042511,-0.048471,0.047246,0.10013,0.11339,0.12577,0.12721,0.18253,0.20405,0.21023,0.18479,0.1961,0.17662,0.22304,0.21786,0.21358,0.22353,0.21259,0.21314,0.2516,0.31695,0.36693,0.28832,0.2049,0.14165,0.052968,0.058249,0.1018,0.072855,0.10118,0.082485,0.12118,0.073124,0.03116,-0.060236,-0.12116,-0.1048,-0.033344,-0.03115,0.032934,0.052599,0.10917,0.28952,0.41011,0.45051,0.39049,0.54429,0.64912,0.87697,1.0073,1.1076,1.138,1.0896,1.084,1.1542,1.1438,1.0795,0.9104,0.73768,0.54178,0.46527,0.47117,0.45526,0.46945,0.39159,0.34122,0.41861,0.47543,0.47748,0.44921,0.4076,0.20448,0.063369,-0.19521,-0.32619,-0.52845,-0.72668,-0.76446,-1.0583,-1.1406,-1.1168,-1.1969,-1.1822,-1.1943,-1.1354,-1.1545,-1.0609,-0.98587,-0.8571,-0.77518,-0.69586,-0.66516,-0.40558,-0.48547,-0.52078,-0.61443,-0.64636,-0.61859,-0.48076,-0.4411,-0.45935,-0.34978,-0.2849,-0.18136,-0.1876,-0.11469,-0.07917,-0.071994,0.077922,0.075417,0.075553,0.0068476,-0.080322,-0.10442,-0.079644,-0.10315,-0.079213,-0.019588,-0.016752,0.022695,0.0078333,0.064644,0.056183,0.010777,-0.01669,-0.053043,-0.052697,-0.052562,-0.10897,-0.034294,0.022026,0.037979,-0.0029524,-0.02095,0.004571,0.056512,0.13874,0.15573,0.16148,0.18098,0.21476,0.15325,0.12086,0.085429,-0.021384,-0.033368,0.011951,0.025102,0.067743,0.015805,-0.0033767,-0.0095801,-0.029592,-0.024611,-0.057456,-0.061726,-0.045049,0.031053,0.051921,0.022731,0.027242,0.12396,0.11975,0.16535,0.13007,0.1211,0.1021,0.086385,0.086764,0.067178,0.13801,0.17212,0.23978,0.2572,0.2589,0.24383,0.14009,0.11624,0.065295,0.026028,-0.047043,-0.055116,0.039925,0.020601,-0.028337,-0.059994,-0.010691,0.049316,0.074951,0.1019,0.12229,0.12718,0.11484,0.094421,0.079032,0.074062,0.19,0.18156,0.045429,0.062507,0.086628,0.04283,0.083368,0.0098431,-0.018375,0.0032047,0.071236,0.095086,0.18037,0.17135,0.15809,0.15128,0.22369,0.21628,0.16157,0.096718,0.037851,-0.0096555,-0.051811,-0.018492,-0.06404,-0.020888,0.0012507,0.073234,0.13881,0.14777,0.10458,0.099912,0.099771,0.096189,0.00091425,0.050149,0.023472,0.010445,0.0075348,-0.077033,-0.12864,-0.070382,-0.029059,-0.0027465,-0.0047654,0.023298,-0.0043737,0.037445,0.041417,0.083274,0.034141,0.0065198,-0.026928,-0.087326,-0.091573,-0.092509,-0.14221,-0.13486,-0.038908,0.0055352,0.072909,0.077766,0.10675,0.12214,0.16838,0.14389,0.10573,0.1251,0.089414,0.018722,0.046359,0.010585,-0.032481,-0.058174,-0.055949,-0.077088,-0.065085,-0.10544,-0.025031,-0.072936,-0.051696,-0.032377,-0.018892,-0.024595,0.023701,0.024019,0.00040133,0.00050806,0.007326,-0.043709,-0.041895,-0.1223,-0.13841,-0.15766,-0.15541,-0.11418,-0.042601,-0.014333,0.011054,0.061373,0.045813,0.0081997,-0.027367,-0.077878,-0.068107,-0.02429,-0.047485,-0.20715,-0.24759,-0.18133,-0.15489,-0.073606,-0.032923,-0.035725,-0.0007232,0.026703,0.030866,0.043847,-0.035748,-0.10126,-0.099341,-0.084391,-0.086882,-0.082602,-0.094346,-0.12895,-0.12796,-0.097617,-0.09565,-0.093905,-0.013748,-0.013168,-0.062908,-0.069102,-9.5613,-15.292,-18.942,-23.105,-21.589,-18.735,-16.257,-16.732,-14.103,-11.657,-10.253,-10.021,-10.13,-10.263,-10.134,-10.742,-12.349,-13.214,-13.462,-14.237,-14.3,-14.45,-12.714,-10.872,-10.3,-10.284,-10.026,-9.378,-7.9388,-4.9991,-3.3993,-0.99423,-0.49041,2.0084,3.8347,6.3689,7.419,8.2381,8.5089,8.9006,10.255,10.272,12.869,13.749,14.581,15.375,16.186,16.169,15.644,15.435,15.519,15.745,15.625,15.709,15.109,14.592,14.199,14.198,14.088,13.941,13.94,14.424,14.806,14.405,13.349,10.865,9.5424,8.8225,8.7598,8.2953,7.4506,6.5888,3.0756,0.21508,-2.4391,-7.4552,-10.258,-14.487,-25.318,-26.807,-22.008,-11.136,-7.3532,-6.1094,-7.1792,-10.969,-9.4482,-6.9516,-2.3001,-1.3513,-1.2215,-1.4806,-1.413,-1.1013,-1.3436,-2.2528,-2.4023,-2.7592,-3.3842,-3.852,-3.5607,-2.4272,-1.4043,-1.4774,-1.9903,-2.5738,-2.5892,-2.6179,-2.8096,-2.6311,-2.3519,-1.9813,-1.7046,-1.7399,-2.1803,-2.8341,-3.0931,-2.7469,-1.826,-1.3708,-1.2628,-1.2321,-1.229,-1.1565,-1.3086,-1.3391,-1.484,-1.4082,-0.90278,-0.47953,-0.42573,-0.83767,-1.332,-1.3317,-0.94403,-0.50082,-0.41625,-0.65658,-0.94706,-0.98989,-0.9066,-0.88085,-0.9417,-1.0737,-0.91998,-0.57856,-0.25146,-0.40748,-0.88441,-1.2925,-1.0404,-0.4132,0.019568,0.01378,-0.25435,-0.43122,-0.45591,-0.40632,-0.69156,-0.99816,-1.164,-1.0118,-0.72547,-1.0517,-1.5473,-2.457,-2.9323,-3.3172,-2.9454,-2.6366,-2.6339,-2.093,-0.86844,-0.17681,0.47597,1.3682,1.3908,2.1356,2.756,3.2522,3.4437,3.7291,3.6374,3.932,4.961,5.6193,5.9101,5.7138,5.3489,4.9164,4.6696,4.3604,4.1039,3.875,3.4325,2.8806,2.4395,0.98433,0.11539,-0.54232,-0.8415,-0.42697,0.012039,0.57817,0.62883,-0.33689,-2.1488,-6.1386,-4.8143,-2.5485,1.9438,1.984,0.83799,-0.59538,-2.0515,-1.7618,-0.82479,0.681,0.49379,0.12414,-0.21305,-0.013127,0.43107,1.2204,1.3418,1.011,0.35721,0.24604,0.52229,0.77179,0.7696,0.38894,0.004123,0.10688,0.48858,0.79713,0.82567,0.6413,0.49776,0.68266,0.89734,0.85762,0.54299,0.26843,0.22812,0.35726,0.33744,0.17896,-0.098789,-0.22019,-0.071695,0.035934,0.17531,0.25552,0.13035,0.19806,0.40184,0.50152,0.45586,0.19882,-0.017193,-0.038721,0.10779,0.046927,-0.072301,-0.061407,0.0012135,0.18296,0.32216,0.25742,0.060539,0.036117,0.16259,0.27323,0.26798,0.054406,-0.18849,-0.36948,-0.31772,-0.25414,-0.22731,-0.34252,-0.39923,-0.26226,-0.061277,0.0079885,-0.072868,-0.22631,-0.23485,-0.11138,0.17227,0.18107,-0.057566,-0.287,-0.33193,-0.27288,-0.25783,-0.34573,-0.46011,-0.43201,-0.29417,-0.19498,-0.31101,-0.55745,-0.6547,-0.49329,-0.18266,-0.010409,-0.12422,-0.39467,-0.59798,-0.66458,-0.58601,-0.61764,-0.67089,-0.68594,-0.55878,-0.39188,-0.41889,-0.50139,-0.70918,-0.76806,-0.57107,-0.25392,-0.12512,-0.22066,-0.37173,-0.43488,-0.44116,-0.50125,-0.48894,-0.4844,-0.47357,-0.39186,-0.31286,-0.35147,-0.59793,-0.80634,-0.74494,-0.61877,-0.43141,-0.33589,-0.34646,-0.39964,-0.52313,-0.48849,-0.54556,-0.54298,-0.53639,-0.40803,-0.29819,-0.29156,-0.44223,-0.69585,-0.80449,-0.67623,-0.45517,-0.33223,-0.28338,-0.37338,-0.36496,-0.37848,-0.35948,-0.36851,-0.39784,-0.35588,-0.21449,-0.14961,-0.21988,-0.41442,-0.64302,-0.76211,-0.59219,-0.3415,-0.19487,-0.13497,-0.018339,0.041277,0.075686,0.030633,-0.030064,-0.04517,0.015228,0.096748,0.13535,0.075321,-0.16604,-0.31273,-0.34619,-0.23961,-0.039051,0.14111,0.20061,0.30072,0.31827,0.26377,0.23041,0.16046,0.26713,0.31938,0.39112,0.28305,0.18728,-0.004512,-0.10727,-0.15222,-0.01196,0.13924,0.37996,0.53257,0.682,0.74506,0.74444,0.64573,0.64472,0.62968,0.60688,0.53686,0.45128,0.26521,0.062613,-0.048194,-0.050301,0.11575,0.31193,0.51805,0.76829,0.98981,1.0435,0.97187,0.84656,0.74904,0.70264,0.70139,0.60845,0.41255,0.23666,0.179,0.15668,0.14152,0.33533,0.59888,0.86427,1.1323,1.3287,1.3581,1.2105,1.0922,0.92053,0.86057,0.79202,0.61865,0.37783,0.22373,0.064321,0.11013,0.11631,0.20672,0.52108,0.85256,1.1963,1.4276,1.3439,1.1537,0.8389,0.65193,0.4881,0.36921,0.17275,-0.013663,-0.14725,-0.23162,-0.25187,-0.25489,-0.091941,0.29077,0.76471,1.2118,1.3855,1.3715,1.1676,0.9446,0.64954,0.42335,0.16017,-0.02752,-0.18774,-0.35158,-0.49549,-0.61436,-0.60725,-0.38678,0.07424,0.60467,1.0974,1.3187,1.2545,0.98303,0.64407,0.23713,-0.072423,-0.3356,-0.49263,-0.62826,-0.83547,-1.0099,-1.1813,-1.2172,-0.91963,-0.37803,0.19809,0.6881,0.74984,0.57765,0.22086,-0.16546,-0.51669,-0.80083,-0.99802,-1.1139,-1.1587,-1.2376,-1.4028,-1.5281,-1.426,-1.0781,-0.45942,0.11193,0.43412,0.51617,0.17737,-0.28032,-0.75021,-1.2145,-1.4368,-1.5414,-1.6188,-1.8205,-2.0497,-2.3504,-2.5182,-2.3754,-1.8939,-1.1697,-0.57562,-0.28029,-0.54671,-1.4565,-3.5926,-5.1236,-7.6515,-8.622,-10.351,-12.47,-13.692,-13.224,-13.675,-14.058,-14.319,-13.017,-10.543,-7.5644,-4.1453,1.803,3.8351,6.6131,8.4609,9.6139,11.442,13.412,16.161,19.318,19.838,19.91,18.638,17.784,16.767,17.071,17.36,17.632,15.903,14.119,13.373,9.8275,8.7254,7.8479,6.9836,3.1339,2.1176,1.8666,-2.4658,-0.16633,0.30487,-13.271,-30.584,-32.439,-26.956,-12.91,-8.8516,-8.4877,-10.666,-11.703,-11.548,-9.5547,-8.2236,-8.46,-10.118,-10.872,-11.127,-10.906,-10.341,-10.895,-11.1,-11.247,-11.088,-10.962,-9.0167,-8.6079,-6.7373,-5.298,-2.1997,-0.62875,1.4586,2.0481,2.924,4.2477,6.8662,10.294,12.335,15.041,15.664,15.425,14.686,13.671,13.091,13.108,13.507,13.75,13.762,13.518,13.139,13.044,12.998,13.337,14.215,14.518,14.494,13.836,12.691,11.721,11.232,11.053,11.258,11.28,10.693,8.4333,6.7036,3.4462,2.6052,0.50511,1.3576,2.3337,-13.206,-27.301,-38.893,-34.615,-18.944,-14.391,-12.303,-13.01,-12.847,-11.922,-8.9,-6.7506,-6.5666,-6.6983,-7.284,-7.2326,-7.4208,-7.5637,-7.6769,-8.2268,-9.4178,-11.184,-12.185,-11.694,-11.192,-10.437,-8.8298,-7.9477,-7.1702,-6.3492,-4.0765,-2.4543,-1.4586,1.7358,3.2687,3.6017,3.2675,2.7272,3.4445,4.42,5.2078,5.8956,6.9094,7.1802,7.6437,7.8453,7.7698,9.9371,11.32,13.07,13.88,13.987,13.417,12.405,11.465,10.895,10.529,10.619,10.691,10.903,10.915,10.686,10.535,10.455,10.689,11.362,11.563,11.618,9.9051,7.5226,5.6,3.9306,1.26,0.020486,-3.8227,-7.1987,-10.11,-11.89,-11.102,-12.377,-17.227,-22.092,-21.155,-17.234,-14.409,-13.522,-13.707,-14.816,-15.545,-16.697,-16.698,-15.938,-14.434,-14.174,-14.386,-15.09,-15.676,-14.82,-13.054,-10.742,-10.055,-9.919,-9.3041,-8.7406,-7.3738,-2.3348,0.3339,2.4706,4.6611,6.1201,6.2874,7.5514,9.1467,10.682,11.639,12.358,14.047,15.019,16.219,16.247,15.557,14.609,13.909,12.973,12.521,11.29,11.109,10.983,10.749,10.161,9.6294,9.9359,11.121,11.432,11.013,10.015,9.1781,8.3789,7.5358,5.7774,5.8412,3.7208,-5.0535,-5.6494,-4.2949,-1.5991,-5.6606,-9.7212,-7.1923,-6.3558,-19.951,-18.177,-5.2655,-3.3654,-6.1916,-7.2504,-5.7063,-4.3169,-3.9898,-3.2109,-2.9009,-0.55121,-0.71883,-0.52969,-0.59313,-0.72057,-0.354,0.17531,-0.24358,-0.94448,-1.2606,-1.3896,-1.5084,-1.4033,-1.2601,-1.238,-1.517,-1.1679,-1.2597,-1.4905,-1.4345,-1.0488,-0.45376,0.53573,0.96194,0.49627,-0.26942,-0.92026,-1.1949,-1.1438,-1.1273,-0.91723,-0.38328,-0.16906,-0.197,-0.10803,-0.23159,-0.62819,-0.75913,-0.019424,0.59259,0.80007,0.52642,-0.085987,-0.82779,-1.2414,-1.4757,-1.443,-1.4309,-1.3828,-0.9295,-0.67985,-0.83468,-1.1416,-1.0483,-1.1412,-0.76746,-0.36534,-1.0418,-1.6026,-2.0598,-2.4409,-1.2647,-0.70356,0.074448,0.9264,1.5451,2.0896,2.3217,2.3122,2.9984,3.544,4.2635,4.8089,5.1063,5.2278,5.0833,4.6845,4.3412,3.8099,3.4318,2.6945,2.5926,2.8743,3.3974,3.6417,3.2944,2.4679,0.89295,0.39806,-0.13926,-0.013152,-0.1193,-0.57872,-0.80112,-0.79242,-1.2537,-3.1575,-3.8301,-4.2518,-11.077,-12.478,-6.404,-2.9252,1.7224,1.8391,0.55951,-2.6809,-3.1958,-2.8383,-1.0554,-0.31419,-0.44338,-0.61927,-0.71291,-0.47601,-0.045977,0.31895,0.45903,0.27786,-0.2131,-0.4684,-0.39873,0.0038673,0.31251,0.41375,0.35102,0.24185,0.090613,-0.0061163,-0.095194,0.10402,0.43537,0.69554,0.75257,0.67045,0.45983,0.23912,0.095145,0.13475,0.30128,0.38141,0.36772,0.21488,0.08292,-0.13644,-0.21075,-0.1652,-0.02533,0.12423,0.3406,0.53214,0.39552,0.10335,-0.1362,-0.24869,-0.17281,0.024369,0.24973,0.2662,0.22303,0.17386,0.17808,0.31398,0.42347,0.50839,0.67841,0.90724,0.93037,0.7992,0.45076,0.15905,-0.005885,0.064377,0.080321,0.17207,0.23607,0.18366,0.088788,-0.031106,-0.017723,0.12125,0.28834,0.30789,0.41838,0.47013,0.21378,-0.24382,-0.4653,-0.41609,-0.037412,0.081534,0.25067,0.2902,0.1824,0.15251,0.21739,0.19499,0.20496,0.13532,0.24947,0.23791,0.14889,-0.1676,-0.49166,-0.67911,-0.71919,-0.59975,-0.32219,-0.10476,-0.01438,0.0063541,-0.071577,-0.04345,0.051729,0.15633,0.28489,0.287,0.27627,0.10454,-0.13168,-0.38513,-0.57528,-0.62592,-0.60246,-0.46112,-0.31253,-0.065682,-0.029888,-0.0012599,0.042177,0.21743,0.35899,0.39361,0.31454,0.083508,-0.068607,-0.32274,-0.53721,-0.64964,-0.70572,-0.65416,-0.45657,-0.26712,-0.21579,-0.207,-0.13667,-0.041641,0.20262,0.24378,0.2034,0.0424,-0.15627,-0.30853,-0.52297,-0.69403,-0.84467,-0.78652,-0.70669,-0.49892,-0.43603,-0.42953,-0.28994,-0.090697,0.2495,0.46556,0.56731,0.47559,0.23879,-0.023256,-0.18571,-0.3577,-0.48412,-0.55747,-0.54394,-0.36455,-0.080612,0.040059,0.10979,0.23602,0.41394,0.72443,0.96541,0.94933,0.67963,0.3404,0.081575,-0.001803,-0.0038124,-0.12774,-0.28258,-0.20467,-0.015539,0.17488,0.22812,0.28964,0.37618,0.6123,0.6819,0.84129,0.76216,0.42903,0.11928,-0.079485,-0.098686,-0.12482,-0.17698,-0.12031,-0.029134,0.11772,0.24224,0.30216,0.28309,0.56841,0.89867,1.2065,1.2939,1.0547,0.6244,0.26009,0.074455,0.088867,0.14998,0.15024,0.098382,0.11235,0.28438,0.45241,0.47955,0.50478,0.68333,0.9447,1.275,1.3004,0.92761,0.37598,0.024965,-0.041773,0.051124,0.10663,0.067986,-0.037473,0.086028,0.23791,0.36696,0.24637,0.21202,0.52089,0.97716,1.2247,1.0827,0.57234,-0.07414,-0.37223,-0.33425,-0.24139,-0.17662,-0.20326,-0.21661,-0.21591,-0.047188,0.075581,0.085004,0.19058,0.52739,0.8143,0.9882,0.73338,0.093054,-0.45244,-0.6535,-0.41559,-0.23106,-0.18893,-0.34094,-0.41186,-0.45838,-0.38638,-0.38158,-0.39517,-0.20788,0.23826,0.68996,0.79246,0.44693,-0.22621,-0.77461,-0.8353,-0.6248,-0.45514,-0.50963,-0.71575,-0.83774,-0.83969,-0.9486,-0.99027,-1.0852,-0.91247,-0.43002,-0.11166,-0.4513,-1.2802,-2.1327,-2.5831,-2.3554,-1.923,-1.657,-1.6474,-1.7161,-1.6379,-1.4731,-1.3834,-1.4341,-1.3995,-1.064,-0.5464,-0.3527,-0.67983,-2.7042,-4.5984,-7.6053,-9.0997,-10.933,-16.181,-18.118,-18.602,-17.571,-16.89,-16.345,-14.988,-9.4743,-5.4978,-1.5477,3.9144,6.1824,6.1311,6.4499,10.325,13.881,16.996,20.556,21.429,21.209,19.814,19.157,18.644,18.247,18.285,18.218,18.485,18.282,17.195,15.841,13.631,12.784,10.846,9.9585,8.5684,5.3029,3.7551,0.73743,-1.4256,-3.3591,-8.168,-13.484,-30.151,-29.366,-22.26,-16.116,-11.723,-11.024,-12.724,-11.405,-8.4475,-7.6664,-7.4067,-7.4481,-7.9127,-9.1327,-9.8078,-10.479,-10.617,-10.347,-10.218,-10.325,-10.592,-9.5872,-8.3687,-7.4666,-6.7801,-4.5538,-3.8482,-2.9443,-1.2648,2.5159,3.6152,3.3323,5.5875,6.9048,9.8933,11.321,12.528,12.166,12.133,13.211,14.269,15.259,15.263,14.989,14.868,15.095,15.294,14.973,14.387,14.26,14.775,14.978,14.564,13.72,10.909,9.2786,9.0836,8.5102,8.4881,7.4209,4.5135,3.1524,0.98195,0.22012,2.0299,1.7363,-0.37262,-17.502,-26.423,-32.176,-22.837,-11.023,-8.1452,-7.6773,-11.765,-11.483,-8.1365,-8.654,-5.9085,-5.9717,-6.175,-6.3945,-6.5192,-6.2461,-6.3731,-6.7001,-7.4311,-9.5864,-10.736,-10.844,-10.387,-9.7519,-9.9497,-10.499,-11.04,-10.867,-10.43,-9.2312,-8.8209,-8.8506,-5.8935,-3.0512,-1.4927,-1.0562,-0.18813,0.038318,1.1247,3.2087,5.0326,4.5743,6.5385,6.8299,7.3385,-11.102,-12.377,-17.227,-22.092,-21.155,-17.234,-14.409,-13.522,-13.707,-14.816,-15.545,-16.697,-16.698,-15.938,-14.434,-14.174,-14.386,-15.09,-15.676,-14.82,-13.054,-10.742,-10.055,-9.919,-9.3041,-8.7406,-7.3738,-2.3348,0.3339,2.4706,4.6611,6.1201,6.2874,7.5514,9.1467,10.682,11.639,12.358,14.047,15.019,16.219,16.247,15.557,14.609,13.909,12.973,12.521,11.29,11.109,10.983,10.749,10.161,9.6294,9.9359,11.121,11.432,11.013,10.015,9.1781,8.3789,7.5358,5.7774,5.8412,3.7208,-5.0535,-5.6494,-4.2949,-1.5991,-5.6606,-9.7212,-7.1923,-6.3558,-19.951,-18.177,-5.2655,-3.3654,-6.1916,-7.2504,-5.7063,-4.3169,-3.9898,-3.2109,-2.9009,-0.55121,-0.71883,-0.52969,-0.59313,-0.72057,-0.354,0.17531,-0.24358,-0.94448,-1.2606,-1.3896,-1.5084,-1.4033,-1.2601,-1.238,-1.517,-1.1679,-1.2597,-1.4905,-1.4345,-1.0488,-0.45376,0.53573,0.96194,0.49627,-0.26942,-0.92026,-1.1949,-1.1438,-1.1273,-0.91723,-0.38328,-0.16906,-0.197,-0.10803,-0.23159,-0.62819,-0.75913,-0.019424,0.59259,0.80007,0.52642,-0.085987,-0.82779,-1.2414,-1.4757,-1.443,-1.4309,-1.3828,-0.9295,-0.67985,-0.83468,-1.1416,-1.0483,-1.1412,-0.76746,-0.36534,-1.0418,-1.6026,-2.0598,-2.4409,-1.2647,-0.70356,0.074448,0.9264,1.5451,2.0896,2.3217,2.3122,2.9984,3.544,4.2635,4.8089,5.1063,5.2278,5.0833,4.6845,4.3412,3.8099,3.4318,2.6945,2.5926,2.8743,3.3974,3.6417,3.2944,2.4679,0.89295,0.39806,-0.13926,-0.013152,-0.1193,-0.57872,-0.80112,-0.79242,-1.2537,-3.1575,-3.8301,-4.2518,-11.077,-12.478,-6.404,-2.9252,1.7224,1.8391,0.55951,-2.6809,-3.1958,-2.8383,-1.0554,-0.31419,-0.44338,-0.61927,-0.71291,-0.47601,-0.045977,0.31895,0.45903,0.27786,-0.2131,-0.4684,-0.39873,0.0038673,0.31251,0.41375,0.35102,0.24185,0.090613,-0.0061163,-0.095194,0.10402,0.43537,0.69554,0.75257,0.67045,0.45983,0.23912,0.095145,0.13475,0.30128,0.38141,0.36772,0.21488,0.08292,-0.13644,-0.21075,-0.1652,-0.02533,0.12423,0.3406,0.53214,0.39552,0.10335,-0.1362,-0.24869,-0.17281,0.024369,0.24973,0.2662,0.22303,0.17386,0.17808,0.31398,0.42347,0.50839,0.67841,0.90724,0.93037,0.7992,0.45076,0.15905,-0.005885,0.064377,0.080321,0.17207,0.23607,0.18366,0.088788,-0.031106,-0.017723,0.12125,0.28834,0.30789,0.41838,0.47013,0.21378,-0.24382,-0.4653,-0.41609,-0.037412,0.081534,0.25067,0.2902,0.1824,0.15251,0.21739,0.19499,0.20496,0.13532,0.24947,0.23791,0.14889,-0.1676,-0.49166,-0.67911,-0.71919,-0.59975,-0.32219,-0.10476,-0.01438,0.0063541,-0.071577,-0.04345,0.051729,0.15633,0.28489,0.287,0.27627,0.10454,-0.13168,-0.38513,-0.57528,-0.62592,-0.60246,-0.46112,-0.31253,-0.065682,-0.029888,-0.0012599,0.042177,0.21743,0.35899,0.39361,0.31454,0.083508,-0.068607,-0.32274,-0.53721,-0.64964,-0.70572,-0.65416,-0.45657,-0.26712,-0.21579,-0.207,-0.13667,-0.041641,0.20262,0.24378,0.2034,0.0424,-0.15627,-0.30853,-0.52297,-0.69403,-0.84467,-0.78652,-0.70669,-0.49892,-0.43603,-0.42953,-0.28994,-0.090697,0.2495,0.46556,0.56731,0.47559,0.23879,-0.023256,-0.18571,-0.3577,-0.48412,-0.55747,-0.54394,-0.36455,-0.080612,0.040059,0.10979,0.23602,0.41394,0.72443,0.96541,0.94933,0.67963,0.3404,0.081575,-0.001803,-0.0038124,-0.12774,-0.28258,-0.20467,-0.015539,0.17488,0.22812,0.28964,0.37618,0.6123,0.6819,0.84129,0.76216,0.42903,0.11928,-0.079485,-0.098686,-0.12482,-0.17698,-0.12031,-0.029134,0.11772,0.24224,0.30216,0.28309,0.56841,0.89867,1.2065,1.2939,1.0547,0.6244,0.26009,0.074455,0.088867,0.14998,0.15024,0.098382,0.11235,0.28438,0.45241,0.47955,0.50478,0.68333,0.9447,1.275,1.3004,0.92761,0.37598,0.024965,-0.041773,0.051124,0.10663,0.067986,-0.037473,0.086028,0.23791,0.36696,0.24637,0.21202,0.52089,0.97716,1.2247,1.0827,0.57234,-0.07414,-0.37223,-0.33425,-0.24139,-0.17662,-0.20326,-0.21661,-0.21591,-0.047188,0.075581,0.085004,0.19058,0.52739,0.8143,0.9882,0.73338,0.093054,-0.45244,-0.6535,-0.41559,-0.23106,-0.18893,-0.34094,-0.41186,-0.45838,-0.38638,-0.38158,-0.39517,-0.20788,0.23826,0.68996,0.79246,0.44693,-0.22621,-0.77461,-0.8353,-0.6248,-0.45514,-0.50963,-0.71575,-0.83774,-0.83969,-0.9486,-0.99027,-1.0852,-0.91247,-0.43002,-0.11166,-0.4513,-1.2802,-2.1327,-2.5831,-2.3554,-1.923,-1.657,-1.6474,-1.7161,-1.6379,-1.4731,-1.3834,-1.4341,-1.3995,-1.064,-0.5464,-0.3527,-0.67983,-2.7042,-4.5984,-7.6053,-9.0997,-10.933,-16.181,-18.118,-18.602,-17.571,-16.89,-16.345,-14.988,-9.4743,-5.4978,-1.5477,3.9144,6.1824,6.1311,6.4499,10.325,13.881,16.996,20.556,21.429,21.209,19.814,19.157,18.644,18.247,18.285,18.218,18.485,18.282,17.195,15.841,13.631,12.784,10.846,9.9585,8.5684,5.3029,3.7551,0.73743,-1.4256,-3.3591,-8.168,-13.484,-30.151,-29.366,-22.26,-16.116,-11.723,-11.024,-12.724,-11.405,-8.4475,-7.6664,-7.4067,-7.4481,-7.9127,-9.1327,-9.8078,-10.479,-10.617,-10.347,-10.218,-10.325,-10.592,-9.5872,-8.3687,-7.4666,-6.7801,-4.5538,-3.8482,-2.9443,-1.2648,2.5159,3.6152,3.3323,5.5875,6.9048,9.8933,11.321,12.528,12.166,12.133,13.211,14.269,15.259,15.263,14.989,14.868,15.095,15.294,14.973,14.387,14.26,14.775,14.978,14.564,13.72,10.909,9.2786,9.0836,8.5102,8.4881,7.4209,4.5135,3.1524,0.98195,0.22012,2.0299,1.7363,-0.37262,-17.502,-26.423,-32.176,-22.837,-11.023,-8.1452,-7.6773,-11.765,-11.483,-8.1365,-8.654,-5.9085,-5.9717,-6.175,-6.3945,-6.5192,-6.2461,-6.3731,-6.7001,-7.4311,-9.5864,-10.736,-10.844,-10.387,-9.7519,-9.9497,-10.499,-11.04,-10.867,-10.43,-9.2312,-8.8209,-8.8506,-5.8935,-3.0512,-1.4927,-1.0562,-0.18813,0.038318,1.1247,3.2087,5.0326,4.5743,6.5385,6.8299,7.3385,7.4363,8.2326,9.4619,10.62,13.202,14.812,15.1,14.015,12.817,12.588,13.405,14.613,14.589,13.904,13.703,13.65,13.465,11.712,10.452,8.297,7.8066,7.6439,5.5416,4.5114,-0.41253,-4.7143,-15.32,-18.986,-24.164,-34.986,-29.244,-23.607,-20.158,-21.847,-22.304,-19.266,-17.36,-15.827,-12.864,-11.244,-10.076,-11.012,-11.29,-10.563,-7.4996,-5.728,-4.848,-2.8646,-1.8813,-0.38967,1.9273,2.4723,4.3903,7.734,10.556,13.175,14.672,16.282,17.623,18.071,18.998,18.789,18.344,17.235,16.436,14.876,14.554,13.134,11.553,10.375,10.247,11.133,11.622,10.435,7.887,6.3533,5.8612,5.6533,5.9497,5.4263,3.7085,-2.5215,-2.4914,-2.1813,-2.2637,-2.9383,1.5273,3.6999,-2.3543,-21.344,-17.123,-10.992,-8.5535,-11.695,-8.8732,-4.5474,-0.055082,-2.004,-2.371,-1.5548,-1.1482,-1.433,-1.8322,-1.8194,-0.82229,0.47981,0.59816,-0.71327,-1.4637,-1.9426,-1.6253,-1.0414,-1.1852,-1.7993,-2.0521,-1.7972,-1.5835,-1.8422,-2.3506,-2.4982,-2.4103,-1.4867,-0.72937,-0.83945,-1.5296,-1.9197,-1.5921,-0.91919,-0.4515,-0.60904,-1.126,-1.5201,-1.1962,-0.67059,-0.75582,-1.0981,-1.4695,-1.116,-0.021106,0.67452,0.5453,-0.11804,-0.61191,-0.24522,0.030035,-0.09522,-0.59777,-1.1236,-1.4383,-1.784,-1.7655,-2.4076,-2.9233,-2.0014,-0.60703,1.4426,2.2834,2.9041,3.1932,1.8894,1.7004,1.7447,1.6248,1.5165,1.2958,1.553,1.9502,1.052,0.065534,-1.0945,-1.1162,-0.3042,1.3987,1.763,1.1071,-0.75047,-2.2261,-2.0281,-1.6445,-1.2309,-1.7115,-2.1222,-2.4746,-2.279,-2.3971,-2.6988,-2.8263,-2.5453,-4.0557,-5.8363,-6.8541,-2.7792,1.3737,1.9878,1.6991,-0.20451,-0.98946,-1.5253,-1.1599,-0.1714,-0.21529,-0.6213,-1.676,-2.0377,-1.6787,-0.42019,0.49391,0.45068,0.10408,-0.1835,0.031143,0.44816,0.59237,0.54919,0.46435,0.58997,0.93885,0.96901,0.74786,0.3922,0.41002,0.83827,1.3091,1.6108,1.5697,1.3746,1.3432,1.4454,1.6152,1.5251,1.4221,1.381,1.3542,1.3422,1.1643,0.76509,0.53688,0.56622,0.88653,1.1737,1.2563,1.1794,1.1175,1.1353,1.256,1.3655,1.4399,1.444,1.4387,1.3948,1.2874,1.2219,1.0134,0.84694,0.94165,1.1577,1.3645,1.4734,1.4537,1.3336,1.2841,1.2799,1.4542,1.6159,1.6689,1.6864,1.6825,1.509,1.2902,1.1695,0.98006,0.85966,0.96946,1.1393,1.1159,1.0273,0.96924,1.0369,0.97594,1.0764,1.2165,1.3571,1.3183,1.1658,0.8978,0.59626,0.43013,0.24599,0.11267,0.14287,0.16928,0.18563,0.12158,-0.013409,-0.0080412,0.24116,0.45095,0.58909,0.65594,0.65923,0.50939,0.34141,0.16324,0.022414,-0.23422,-0.33179,-0.33758,-0.23277,-0.22184,-0.28614,-0.41745,-0.54031,-0.40323,-0.08052,0.13396,0.055255,-0.033022,-0.13507,-0.28177,-0.3637,-0.59728,-0.9773,-1.2025,-1.1987,-1.0406,-1.0161,-1.1713,-1.3088,-1.315,-1.0638,-0.69541,-0.52631,-0.64235,-0.86402,-1.0541,-1.1431,-1.316,-1.7511,-2.2115,-2.4003,-2.3927,-2.3373,-2.3961,-2.5589,-2.6927,-2.5711,-2.2157,-1.9947,-1.9435,-2.1171,-2.2629,-2.2489,-2.2208,-2.4956,-2.9549,-3.3429,-3.4875,-3.1948,-2.9958,-3.0801,-3.6326,-4.1682,-4.6295,-6.7645,-10.109,-11.835,-12.102,-10.13,-8.8744,-8.2778,-8.5022,-8.6696,-8.167,-7.6208,-6.25,-5.7868,-4.738,-3.9902,-2.1949,-1.0243,0.38593,0.59084,1.5915,2.399,3.3393,4.5439,6.4985,7.6442,7.7288,7.9047,8.9608,9.537,9.944,10.388,11.08,11.618,12.354,13.038,13.253,13.142,13.122,13.185,13.103,12.652,11.115,10.23,9.5783,9.4037,9.2714,8.503,8.0469,7.8007,8.188,8.7705,9.0184,8.9794,7.9701,7.3458,6.3057,5.8362,4.4772,0.8984,-2.2427,-1.4908,-1.9284,-4.5632,-13.265,-17.521,-18.073,-8.9539,-5.1106,-3.1482,-5.6996,-8.4383,-11.581,-11.052,-9.8311,-6.6962,-6.0677,-5.299,-4.9526,-3.8177,-3.5991,-4.269,-4.737,-4.722,-3.8364,-2.8789,-2.2638,-1.7258,-1.5215,-1.156,-0.96858,-1.1544,-1.8586,-3.1335,-3.6527,-4.0117,-3.8688,-4.9622,-5.9734,-7.083,-9.8018,-10.246,-10.914,-11.651,-11.225,-8.9511,-7.2778,-4.7326,-4.6925,-5.1273,-4.2523,-1.0414,0.8449,0.86598,7.1037,10.036,16.288,17.631,20.348,21.696,22.831,23.949,23.104,19.513,17.935,16.414,13.158,10.582,5.9305,4.3581,3.3414,4.4267,3.8973,-6.9721,-16.274,-33.678,-31.518,-14.738,-8.1191,-6.4645,-8.9077,-10.065,-7.5055,-5.7271,-2.9796,-2.9973,-4.1339,-4.5528,-4.7507,-4.9613,-5.7279,-6.5383,-6.8801,-7.7634,-8.0821,-8.1523,-8.0349,-8.0366,-8.3709,-8.8126,-7.5582,-7.3126,-7.1282,-6.2178,-5.8843,-5.3161,-2.5518,0.81888,2.7159,5.5277,6.45,7.3273,7.6148,9.7809,11.636,11.277,13.329,12.729,12.409,12.862,13.244,14.166,14.354,14.637,14.584,14.481,14.14,14.083,14.127,14.227,13.798,13.392,12.603,11.437,10.743,10.178,9.6817,8.992,8.0455,5.4854,5.7208,2.7859,-2.2737,-6.7789,-11.729,-27.028,-31.535,-26.939,-20.954,-11.587,-10.475,-11.316,-10.868,-5.8153,-3.2874,-1.6285,-1.3122,-1.5556,-1.6594,-1.8547,-3.5754,-4.4525,-5.2586,-6.8196,-7.4143,-8.3548,-8.8338,-9.2375,-9.78,-10.032,-9.7,-8.2627,-7.0146,-6.6005,-6.6622,-6.8077,-6.7117,-5.6504,-4.2409,-2.9414,-0.76058,0.22836,1.4497,2.0245,2.8491,3.2503,3.9286,5.3568,7.0784,7.8314,8.333,8.7638,9.6987,10.567,11.078,11.929,12.395,12.806,12.903,12.679,12.199,11.629,10.716,10.482,10.61,10.518,10.408,10.045,8.782,7.6424,6.0587,4.5396,3.4472,1.7925,-0.56511,-7.0271,-10.826,-16.286,-12.476,-9.6245,-10.128,-20.194,-19.777,-16.667,-14.6,-9.3115,-8.3296,-8.6049,-10.173,-10.302,-10.126,-8.9312,-9.2373,-9.7996,-10.345,-9.8922,-9.6019,-9.1715,-9.7385,-9.3381,-9.139,-9.4368,-9.7103,-9.0262,-6.2271,-4.5276,-1.5726,-0.68167,-0.40929,0.31359,0.70198,2.5653,3.6212,5.0498,7.7897,9.0842,10.861,11.442,12.118,12.426,13.278,15.278,16.33,17.119,17.033,16.608,16.544,16.251,15.65,15.038,14.063,13.787,13.045,13.014,11.124,9.8915,9.4772,6.2218,3.7177,1.107,1.249,0.61372,-0.73742,-2.9092,-4.5683,-3.6016,-5.2796,-14.716,-17.674,-17.185,-13.135,-9.176,-5.3251,-2.4279,-2.4113,-4.1008,-3.7586,-3.2703,-3.1981,-2.9117,-1.7912,-1.2628,-1.272,-1.3167,-1.0799,-0.73566,-0.58913,-1.0685,-1.6565,-1.7576,-1.4691,-1.2949,-1.134,-1.1497,-0.92693,-0.67307,-0.38862,-0.67715,-29.244,-23.607,-20.158,-21.847,-22.304,-19.266,-17.36,-15.827,-12.864,-11.244,-10.076,-11.012,-11.29,-10.563,-7.4996,-5.728,-4.848,-2.8646,-1.8813,-0.38967,1.9273,2.4723,4.3903,7.734,10.556,13.175,14.672,16.282,17.623,18.071,18.998,18.789,18.344,17.235,16.436,14.876,14.554,13.134,11.553,10.375,10.247,11.133,11.622,10.435,7.887,6.3533,5.8612,5.6533,5.9497,5.4263,3.7085,-2.5215,-2.4914,-2.1813,-2.2637,-2.9383,1.5273,3.6999,-2.3543,-21.344,-17.123,-10.992,-8.5535,-11.695,-8.8732,-4.5474,-0.055082,-2.004,-2.371,-1.5548,-1.1482,-1.433,-1.8322,-1.8194,-0.82229,0.47981,0.59816,-0.71327,-1.4637,-1.9426,-1.6253,-1.0414,-1.1852,-1.7993,-2.0521,-1.7972,-1.5835,-1.8422,-2.3506,-2.4982,-2.4103,-1.4867,-0.72937,-0.83945,-1.5296,-1.9197,-1.5921,-0.91919,-0.4515,-0.60904,-1.126,-1.5201,-1.1962,-0.67059,-0.75582,-1.0981,-1.4695,-1.116,-0.021106,0.67452,0.5453,-0.11804,-0.61191,-0.24522,0.030035,-0.09522,-0.59777,-1.1236,-1.4383,-1.784,-1.7655,-2.4076,-2.9233,-2.0014,-0.60703,1.4426,2.2834,2.9041,3.1932,1.8894,1.7004,1.7447,1.6248,1.5165,1.2958,1.553,1.9502,1.052,0.065534,-1.0945,-1.1162,-0.3042,1.3987,1.763,1.1071,-0.75047,-2.2261,-2.0281,-1.6445,-1.2309,-1.7115,-2.1222,-2.4746,-2.279,-2.3971,-2.6988,-2.8263,-2.5453,-4.0557,-5.8363,-6.8541,-2.7792,1.3737,1.9878,1.6991,-0.20451,-0.98946,-1.5253,-1.1599,-0.1714,-0.21529,-0.6213,-1.676,-2.0377,-1.6787,-0.42019,0.49391,0.45068,0.10408,-0.1835,0.031143,0.44816,0.59237,0.54919,0.46435,0.58997,0.93885,0.96901,0.74786,0.3922,0.41002,0.83827,1.3091,1.6108,1.5697,1.3746,1.3432,1.4454,1.6152,1.5251,1.4221,1.381,1.3542,1.3422,1.1643,0.76509,0.53688,0.56622,0.88653,1.1737,1.2563,1.1794,1.1175,1.1353,1.256,1.3655,1.4399,1.444,1.4387,1.3948,1.2874,1.2219,1.0134,0.84694,0.94165,1.1577,1.3645,1.4734,1.4537,1.3336,1.2841,1.2799,1.4542,1.6159,1.6689,1.6864,1.6825,1.509,1.2902,1.1695,0.98006,0.85966,0.96946,1.1393,1.1159,1.0273,0.96924,1.0369,0.97594,1.0764,1.2165,1.3571,1.3183,1.1658,0.8978,0.59626,0.43013,0.24599,0.11267,0.14287,0.16928,0.18563,0.12158,-0.013409,-0.0080412,0.24116,0.45095,0.58909,0.65594,0.65923,0.50939,0.34141,0.16324,0.022414,-0.23422,-0.33179,-0.33758,-0.23277,-0.22184,-0.28614,-0.41745,-0.54031,-0.40323,-0.08052,0.13396,0.055255,-0.033022,-0.13507,-0.28177,-0.3637,-0.59728,-0.9773,-1.2025,-1.1987,-1.0406,-1.0161,-1.1713,-1.3088,-1.315,-1.0638,-0.69541,-0.52631,-0.64235,-0.86402,-1.0541,-1.1431,-1.316,-1.7511,-2.2115,-2.4003,-2.3927,-2.3373,-2.3961,-2.5589,-2.6927,-2.5711,-2.2157,-1.9947,-1.9435,-2.1171,-2.2629,-2.2489,-2.2208,-2.4956,-2.9549,-3.3429,-3.4875,-3.1948,-2.9958,-3.0801,-3.6326,-4.1682,-4.6295,-6.7645,-10.109,-11.835,-12.102,-10.13,-8.8744,-8.2778,-8.5022,-8.6696,-8.167,-7.6208,-6.25,-5.7868,-4.738,-3.9902,-2.1949,-1.0243,0.38593,0.59084,1.5915,2.399,3.3393,4.5439,6.4985,7.6442,7.7288,7.9047,8.9608,9.537,9.944,10.388,11.08,11.618,12.354,13.038,13.253,13.142,13.122,13.185,13.103,12.652,11.115,10.23,9.5783,9.4037,9.2714,8.503,8.0469,7.8007,8.188,8.7705,9.0184,8.9794,7.9701,7.3458,6.3057,5.8362,4.4772,0.8984,-2.2427,-1.4908,-1.9284,-4.5632,-13.265,-17.521,-18.073,-8.9539,-5.1106,-3.1482,-5.6996,-8.4383,-11.581,-11.052,-9.8311,-6.6962,-6.0677,-5.299,-4.9526,-3.8177,-3.5991,-4.269,-4.737,-4.722,-3.8364,-2.8789,-2.2638,-1.7258,-1.5215,-1.156,-0.96858,-1.1544,-1.8586,-3.1335,-3.6527,-4.0117,-3.8688,-4.9622,-5.9734,-7.083,-9.8018,-10.246,-10.914,-11.651,-11.225,-8.9511,-7.2778,-4.7326,-4.6925,-5.1273,-4.2523,-1.0414,0.8449,0.86598,7.1037,10.036,16.288,17.631,20.348,21.696,22.831,23.949,23.104,19.513,17.935,16.414,13.158,10.582,5.9305,4.3581,3.3414,4.4267,3.8973,-6.9721,-16.274,-33.678,-31.518,-14.738,-8.1191,-6.4645,-8.9077,-10.065,-7.5055,-5.7271,-2.9796,-2.9973,-4.1339,-4.5528,-4.7507,-4.9613,-5.7279,-6.5383,-6.8801,-7.7634,-8.0821,-8.1523,-8.0349,-8.0366,-8.3709,-8.8126,-7.5582,-7.3126,-7.1282,-6.2178,-5.8843,-5.3161,-2.5518,0.81888,2.7159,5.5277,6.45,7.3273,7.6148,9.7809,11.636,11.277,13.329,12.729,12.409,12.862,13.244,14.166,14.354,14.637,14.584,14.481,14.14,14.083,14.127,14.227,13.798,13.392,12.603,11.437,10.743,10.178,9.6817,8.992,8.0455,5.4854,5.7208,2.7859,-2.2737,-6.7789,-11.729,-27.028,-31.535,-26.939,-20.954,-11.587,-10.475,-11.316,-10.868,-5.8153,-3.2874,-1.6285,-1.3122,-1.5556,-1.6594,-1.8547,-3.5754,-4.4525,-5.2586,-6.8196,-7.4143,-8.3548,-8.8338,-9.2375,-9.78,-10.032,-9.7,-8.2627,-7.0146,-6.6005,-6.6622,-6.8077,-6.7117,-5.6504,-4.2409,-2.9414,-0.76058,0.22836,1.4497,2.0245,2.8491,3.2503,3.9286,5.3568,7.0784,7.8314,8.333,8.7638,9.6987,10.567,11.078,11.929,12.395,12.806,12.903,12.679,12.199,11.629,10.716,10.482,10.61,10.518,10.408,10.045,8.782,7.6424,6.0587,4.5396,3.4472,1.7925,-0.56511,-7.0271,-10.826,-16.286,-12.476,-9.6245,-10.128,-20.194,-19.777,-16.667,-14.6,-9.3115,-8.3296,-8.6049,-10.173,-10.302,-10.126,-8.9312,-9.2373,-9.7996,-10.345,-9.8922,-9.6019,-9.1715,-9.7385,-9.3381,-9.139,-9.4368,-9.7103,-9.0262,-6.2271,-4.5276,-1.5726,-0.68167,-0.40929,0.31359,0.70198,2.5653,3.6212,5.0498,7.7897,9.0842,10.861,11.442,12.118,12.426,13.278,15.278,16.33,17.119,17.033,16.608,16.544,16.251,15.65,15.038,14.063,13.787,13.045,13.014,11.124,9.8915,9.4772,6.2218,3.7177,1.107,1.249,0.61372,-0.73742,-2.9092,-4.5683,-3.6016,-5.2796,-14.716,-17.674,-17.185,-13.135,-9.176,-5.3251,-2.4279,-2.4113,-4.1008,-3.7586,-3.2703,-3.1981,-2.9117,-1.7912,-1.2628,-1.272,-1.3167,-1.0799,-0.73566,-0.58913,-1.0685,-1.6565,-1.7576,-1.4691,-1.2949,-1.134,-1.1497,-0.92693,-0.67307,-0.38862,-0.67715,-0.90618,-1.2154,-1.4192,-1.0182,-0.75785,-0.90302,-1.0761,-1.2867,-1.1885,-0.89524,-0.47051,-0.37989,-0.95766,-1.1153,-0.9898,-0.66185,-0.53995,-0.51128,-0.51808,-0.39936,-0.11503,-0.10513,-0.60554,-1.1407,-1.5778,-1.3619,-0.73837,-0.54776,-0.52207,-0.65685,-0.22301,0.1011,0.24765,0.20972,0.097436,-0.051559,0.08441,0.31167,0.20989,-0.22645,-0.60577,-0.78186,-0.47293,-0.21824,-0.16589,-0.2883,-0.32757,-0.25427,-0.11154,0.14375,0.11355,0.12122,0.20523,0.39814,0.52719,0.23771,-0.04666,-0.4462,-0.77663,-0.6878,-0.41,-0.26079,-0.3729,-0.64188,-0.37673,0.061456,0.12154,0.045599,-0.0041512,0.18029,0.50036,0.58881,0.21561,-0.427,-0.81945,-0.79095,-0.57916,-0.37119,-0.28421,-0.39936,-0.27524,-0.063956,0.073002,0.054043,-0.11648,-0.10269,0.19095,0.26005,0.15397,-0.25509,-0.75592,-0.97667,-0.92042,-0.92441,-0.85653,-0.65245,-0.43665,-0.24144,-0.11178,-0.086563,0.10862,0.51058,1.347,1.9788,2.1654,1.5432,0.64517,-0.10235,-0.014053,1.7954,1.6857,1.5491,1.2062,1.1455,1.8184,2.4269,2.6865,1.621,1.1098,1.0956,0.97607,0.085004,-0.59763,-1.1771,-1.362,-0.75385,-0.31816,0.033653,0.062887,0.0018062,-0.043295,-0.44887,-0.52114,-0.35263,-0.17107,0.62145,1.1112,1.5967,1.5653,1.3178,0.96169,0.87303,0.82289,0.82905,0.85341,0.83689,0.82091,1.0119,1.2384,1.5984,1.6139,1.5561,1.6018,1.7356,1.6034,1.4565,1.132,0.69814,-0.044598,-0.26916,-0.42273,-0.44845,-0.38483,-0.40175,-0.30608,-0.21956,-0.099647,0.15388,0.34433,0.39889,0.4328,0.57857,0.57115,0.37725,0.077396,-0.34011,-0.52062,-0.25352,-0.00089924,0.021885,-0.12703,-0.25709,-0.34522,-0.26416,-0.29952,-0.29033,-0.24411,-0.22901,-0.1337,-0.09853,-0.20819,-0.72876,-1.0692,-1.0493,-0.84098,-0.54582,-0.46101,-0.34138,-0.46584,-0.5252,-0.31987,-0.038637,0.12421,-0.033045,0.054691,0.26981,0.23372,-0.072418,-0.48726,-0.74857,-0.71119,-0.67001,-0.64169,-0.70919,-0.94056,-0.97336,-0.9538,-0.92442,-0.94492,-0.90946,-0.76639,-0.58783,-0.54799,-0.66164,-0.95334,-1.3135,-1.5241,-1.4892,-1.1934,-1.1093,-1.1502,-1.274,-1.355,-1.47,-1.2709,-1.223,-1.1566,-1.04,-0.83276,-0.70509,-0.80214,-1.0945,-1.469,-1.7268,-1.7582,-1.6751,-1.6294,-1.7682,-2.0015,-2.2629,-2.2745,-2.3767,-2.3377,-2.7239,-2.6528,-2.3359,-2.2449,-2.464,-3.1443,-3.7069,-4.0659,-4.0103,-3.2839,-2.9104,-2.9899,-3.0376,-1.47,-0.84645,-0.60421,-1.1782,-1.3878,-0.65504,0.8394,3.0886,3.6139,3.3556,3.2043,4.2544,5.1129,6.0035,6.0844,6.1629,6.5092,7.1589,8.3778,8.8141,8.8991,9.0004,9.3688,10.951,11.153,10.813,10.389,9.3344,8.1485,7.1883,7.42,7.1742,5.4788,3.9865,1.3816,-0.13812,-2.9206,-3.9147,-5.2061,-10.465,-15.147,-13.707,-9.7788,-2.6022,-1.4796,-1.4934,-3.191,-2.8234,-2.4536,-2.3764,-2.1313,-1.8622,-1.2691,-1.4268,-1.7975,-1.1508,-0.37292,0.02886,-0.21888,-0.99786,-1.3261,-1.4315,-1.4036,-1.2553,-1.2073,-1.3189,-1.3918,-1.4015,-1.2194,-0.95405,-0.81557,-0.93438,-0.65903,-0.31438,-0.21309,-0.49987,-0.8651,-1.0192,-1.0536,-1.0926,-0.98776,-1.0202,-1.2361,-1.375,-1.3752,-1.2448,-1.114,-0.77954,-0.41746,0.11195,0.29287,0.23177,-0.038694,-0.49967,-0.85712,-0.88487,-0.74653,-0.84084,-0.97273,-1.0023,-0.93457,-0.85715,-0.78327,-0.66957,-0.32099,0.11886,0.29219,0.43594,0.3602,0.058511,-0.40649,-0.62868,-0.44652,-0.41824,-0.55166,-0.7219,-0.78686,-0.66662,-0.44847,-0.36137,-0.13749,0.17578,0.59369,0.94778,0.99734,0.80545,0.6046,0.29301,0.14656,0.16878,0.15843,-0.033244,-0.18383,-0.12891,-0.010181,0.11372,0.1847,0.40147,0.77755,1.1685,1.4426,1.3948,1.1102,0.87406,0.63412,0.34715,0.18825,0.14518,0.10252,0.061722,-0.22561,-0.19801,-0.019948,0.14567,0.27158,0.41181,0.78761,1.1173,1.1351,0.12263,-0.83046,-2.242,-2.3866,-2.3055,-2.0219,-0.94016,-0.21482,0.064464,0.68428,1.2248,2.1345,3.1425,3.6664,4.0716,4.5737,4.9465,5.676,5.2633,3.657,3.0688,1.5592,0.50669,-0.71919,-0.53476,-0.080141,-0.093473,-0.1156,-0.30735,-0.24021,0.25555,0.48851,0.71654,0.77592,0.8066,0.69268,0.40893,0.30138,0.24808,0.29412,0.1344,-0.00067861,-0.058568,0.093521,0.39336,0.49719,0.74495,0.92597,0.88078,0.62906,0.39816,0.030072,-0.32869,-0.74612,-0.93467,-0.84996,-0.80262,-0.77036,-0.7683,-0.732,-0.51675,-0.32825,-0.44267,-0.23063,0.017608,0.10326,0.0082789,-0.15803,-0.58395,-1.0026,-1.2807,-1.4452,-1.616,-1.5194,-1.3014,-1.3891,-1.2884,-0.97815,-0.79789,-0.73424,-0.67616,-0.80542,-0.90951,-1.1223,-1.2264,-1.5225,-2.0433,-2.3412,-2.412,-2.324,-2.2545,-2.1189,-1.9523,-2.0468,-1.9518,-1.6464,-1.4985,-1.5134,-1.6429,-1.6711,-1.7279,-1.9281,-2.4061,-2.8514,-3.2534,-3.32,-3.3123,-3.2698,-3.3731,-3.9729,-4.3077,-5.2028,-5.7098,-6.287,-8.0402,-8.1695,-7.8718,-7.0854,-3.7462,-4.1729,0.65783,6.6194,8.6059,9.3791,8.619,7.5135,7.528,6.6114,6.0385,5.5861,4.8671,4.3616,4.6051,3.6719,2.037,1.9719,2.4967,2.7908,2.1982,1.1876,1.4504,0.76023,0.57372,0.39807,0.79437,1.3337,1.3865,1.2784,0.90448,1.0813,1.3606,1.6943,1.597,1.495,1.5752,1.7204,2.0278,2.3388,2.6389,2.7984,2.9588,3.0391,3.0573,2.8904,2.6978,2.4903,2.3397,1.8162,1.6536,1.383,1.7527,1.9916,2.0685,1.2282,1.5313,1.5124,1.357,-0.2318,-3.8309,-3.8463,-6.8559,-8.7128,-8.5835,-8.4612,-5.4393,-1.6697,-0.065427,1.4629,3.2113,6.1908,7.199,7.4777,7.4387,7.4562,8.1144,10.54,11.565,11.22,10.179,9.1498,6.7557,5.0932,2.4609,1.5647,0.63379,-4.3876,-7.4998,-10.687,-11.365,-10.706,-11.224,-13.291,-14.358,-9.4147,-7.4488,-5.7815,-4.3856,-2.3899,-1.8966,-2.3433,-3.5284,-4.3073,-4.245,-3.4106,-2.6208,-1.7738,-1.5011,-1.8152,-1.8144,-1.9303,-2.5031,-2.9182,-3.0201,-2.6009,-2.0427,-2.1579,-2.6499,-3.3002,-3.315,-3.0302,-2.8048,-2.6164,-2.3251,-2.3426,-2.3286,-2.3808,-2.1937,-1.8205,-1.3768,0.25956,1.2345,1.7129,2.0289,1.5152,2.1438,2.6473,2.007,2.2059,3.3499,3.4158,3.514,4.0982,4.9094,6.6436,6.1158,7.7897,9.0842,10.861,11.442,12.118,12.426,13.278,15.278,16.33,17.119,17.033,16.608,16.544,16.251,15.65,15.038,14.063,13.787,13.045,13.014,11.124,9.8915,9.4772,6.2218,3.7177,1.107,1.249,0.61372,-0.73742,-2.9092,-4.5683,-3.6016,-5.2796,-14.716,-17.674,-17.185,-13.135,-9.176,-5.3251,-2.4279,-2.4113,-4.1008,-3.7586,-3.2703,-3.1981,-2.9117,-1.7912,-1.2628,-1.272,-1.3167,-1.0799,-0.73566,-0.58913,-1.0685,-1.6565,-1.7576,-1.4691,-1.2949,-1.134,-1.1497,-0.92693,-0.67307,-0.38862,-0.67715,-0.90618,-1.2154,-1.4192,-1.0182,-0.75785,-0.90302,-1.0761,-1.2867,-1.1885,-0.89524,-0.47051,-0.37989,-0.95766,-1.1153,-0.9898,-0.66185,-0.53995,-0.51128,-0.51808,-0.39936,-0.11503,-0.10513,-0.60554,-1.1407,-1.5778,-1.3619,-0.73837,-0.54776,-0.52207,-0.65685,-0.22301,0.1011,0.24765,0.20972,0.097436,-0.051559,0.08441,0.31167,0.20989,-0.22645,-0.60577,-0.78186,-0.47293,-0.21824,-0.16589,-0.2883,-0.32757,-0.25427,-0.11154,0.14375,0.11355,0.12122,0.20523,0.39814,0.52719,0.23771,-0.04666,-0.4462,-0.77663,-0.6878,-0.41,-0.26079,-0.3729,-0.64188,-0.37673,0.061456,0.12154,0.045599,-0.0041512,0.18029,0.50036,0.58881,0.21561,-0.427,-0.81945,-0.79095,-0.57916,-0.37119,-0.28421,-0.39936,-0.27524,-0.063956,0.073002,0.054043,-0.11648,-0.10269,0.19095,0.26005,0.15397,-0.25509,-0.75592,-0.97667,-0.92042,-0.92441,-0.85653,-0.65245,-0.43665,-0.24144,-0.11178,-0.086563,0.10862,0.51058,1.347,1.9788,2.1654,1.5432,0.64517,-0.10235,-0.014053,1.7954,1.6857,1.5491,1.2062,1.1455,1.8184,2.4269,2.6865,1.621,1.1098,1.0956,0.97607,0.085004,-0.59763,-1.1771,-1.362,-0.75385,-0.31816,0.033653,0.062887,0.0018062,-0.043295,-0.44887,-0.52114,-0.35263,-0.17107,0.62145,1.1112,1.5967,1.5653,1.3178,0.96169,0.87303,0.82289,0.82905,0.85341,0.83689,0.82091,1.0119,1.2384,1.5984,1.6139,1.5561,1.6018,1.7356,1.6034,1.4565,1.132,0.69814,-0.044598,-0.26916,-0.42273,-0.44845,-0.38483,-0.40175,-0.30608,-0.21956,-0.099647,0.15388,0.34433,0.39889,0.4328,0.57857,0.57115,0.37725,0.077396,-0.34011,-0.52062,-0.25352,-0.00089924,0.021885,-0.12703,-0.25709,-0.34522,-0.26416,-0.29952,-0.29033,-0.24411,-0.22901,-0.1337,-0.09853,-0.20819,-0.72876,-1.0692,-1.0493,-0.84098,-0.54582,-0.46101,-0.34138,-0.46584,-0.5252,-0.31987,-0.038637,0.12421,-0.033045,0.054691,0.26981,0.23372,-0.072418,-0.48726,-0.74857,-0.71119,-0.67001,-0.64169,-0.70919,-0.94056,-0.97336,-0.9538,-0.92442,-0.94492,-0.90946,-0.76639,-0.58783,-0.54799,-0.66164,-0.95334,-1.3135,-1.5241,-1.4892,-1.1934,-1.1093,-1.1502,-1.274,-1.355,-1.47,-1.2709,-1.223,-1.1566,-1.04,-0.83276,-0.70509,-0.80214,-1.0945,-1.469,-1.7268,-1.7582,-1.6751,-1.6294,-1.7682,-2.0015,-2.2629,-2.2745,-2.3767,-2.3377,-2.7239,-2.6528,-2.3359,-2.2449,-2.464,-3.1443,-3.7069,-4.0659,-4.0103,-3.2839,-2.9104,-2.9899,-3.0376,-1.47,-0.84645,-0.60421,-1.1782,-1.3878,-0.65504,0.8394,3.0886,3.6139,3.3556,3.2043,4.2544,5.1129,6.0035,6.0844,6.1629,6.5092,7.1589,8.3778,8.8141,8.8991,9.0004,9.3688,10.951,11.153,10.813,10.389,9.3344,8.1485,7.1883,7.42,7.1742,5.4788,3.9865,1.3816,-0.13812,-2.9206,-3.9147,-5.2061,-10.465,-15.147,-13.707,-9.7788,-2.6022,-1.4796,-1.4934,-3.191,-2.8234,-2.4536,-2.3764,-2.1313,-1.8622,-1.2691,-1.4268,-1.7975,-1.1508,-0.37292,0.02886,-0.21888,-0.99786,-1.3261,-1.4315,-1.4036,-1.2553,-1.2073,-1.3189,-1.3918,-1.4015,-1.2194,-0.95405,-0.81557,-0.93438,-0.65903,-0.31438,-0.21309,-0.49987,-0.8651,-1.0192,-1.0536,-1.0926,-0.98776,-1.0202,-1.2361,-1.375,-1.3752,-1.2448,-1.114,-0.77954,-0.41746,0.11195,0.29287,0.23177,-0.038694,-0.49967,-0.85712,-0.88487,-0.74653,-0.84084,-0.97273,-1.0023,-0.93457,-0.85715,-0.78327,-0.66957,-0.32099,0.11886,0.29219,0.43594,0.3602,0.058511,-0.40649,-0.62868,-0.44652,-0.41824,-0.55166,-0.7219,-0.78686,-0.66662,-0.44847,-0.36137,-0.13749,0.17578,0.59369,0.94778,0.99734,0.80545,0.6046,0.29301,0.14656,0.16878,0.15843,-0.033244,-0.18383,-0.12891,-0.010181,0.11372,0.1847,0.40147,0.77755,1.1685,1.4426,1.3948,1.1102,0.87406,0.63412,0.34715,0.18825,0.14518,0.10252,0.061722,-0.22561,-0.19801,-0.019948,0.14567,0.27158,0.41181,0.78761,1.1173,1.1351,0.12263,-0.83046,-2.242,-2.3866,-2.3055,-2.0219,-0.94016,-0.21482,0.064464,0.68428,1.2248,2.1345,3.1425,3.6664,4.0716,4.5737,4.9465,5.676,5.2633,3.657,3.0688,1.5592,0.50669,-0.71919,-0.53476,-0.080141,-0.093473,-0.1156,-0.30735,-0.24021,0.25555,0.48851,0.71654,0.77592,0.8066,0.69268,0.40893,0.30138,0.24808,0.29412,0.1344,-0.00067861,-0.058568,0.093521,0.39336,0.49719,0.74495,0.92597,0.88078,0.62906,0.39816,0.030072,-0.32869,-0.74612,-0.93467,-0.84996,-0.80262,-0.77036,-0.7683,-0.732,-0.51675,-0.32825,-0.44267,-0.23063,0.017608,0.10326,0.0082789,-0.15803,-0.58395,-1.0026,-1.2807,-1.4452,-1.616,-1.5194,-1.3014,-1.3891,-1.2884,-0.97815,-0.79789,-0.73424,-0.67616,-0.80542,-0.90951,-1.1223,-1.2264,-1.5225,-2.0433,-2.3412,-2.412,-2.324,-2.2545,-2.1189,-1.9523,-2.0468,-1.9518,-1.6464,-1.4985,-1.5134,-1.6429,-1.6711,-1.7279,-1.9281,-2.4061,-2.8514,-3.2534,-3.32,-3.3123,-3.2698,-3.3731,-3.9729,-4.3077,-5.2028,-5.7098,-6.287,-8.0402,-8.1695,-7.8718,-7.0854,-3.7462,-4.1729,0.65783,6.6194,8.6059,9.3791,8.619,7.5135,7.528,6.6114,6.0385,5.5861,4.8671,4.3616,4.6051,3.6719,2.037,1.9719,2.4967,2.7908,2.1982,1.1876,1.4504,0.76023,0.57372,0.39807,0.79437,1.3337,1.3865,1.2784,0.90448,1.0813,1.3606,1.6943,1.597,1.495,1.5752,1.7204,2.0278,2.3388,2.6389,2.7984,2.9588,3.0391,3.0573,2.8904,2.6978,2.4903,2.3397,1.8162,1.6536,1.383,1.7527,1.9916,2.0685,1.2282,1.5313,1.5124,1.357,-0.2318,-3.8309,-3.8463,-6.8559,-8.7128,-8.5835,-8.4612,-5.4393,-1.6697,-0.065427,1.4629,3.2113,6.1908,7.199,7.4777,7.4387,7.4562,8.1144,10.54,11.565,11.22,10.179,9.1498,6.7557,5.0932,2.4609,1.5647,0.63379,-4.3876,-7.4998,-10.687,-11.365,-10.706,-11.224,-13.291,-14.358,-9.4147,-7.4488,-5.7815,-4.3856,-2.3899,-1.8966,-2.3433,-3.5284,-4.3073,-4.245,-3.4106,-2.6208,-1.7738,-1.5011,-1.8152,-1.8144,-1.9303,-2.5031,-2.9182,-3.0201,-2.6009,-2.0427,-2.1579,-2.6499,-3.3002,-3.315,-3.0302,-2.8048,-2.6164,-2.3251,-2.3426,-2.3286,-2.3808,-2.1937,-1.8205,-1.3768,0.25956,1.2345,1.7129,2.0289,1.5152,2.1438,2.6473,2.007,2.2059,3.3499,3.4158,3.514,4.0982,4.9094,6.6436,6.1158,5.2,4.332,3.1047,2.5751,1.9299,1.6915,1.7254,1.023,0.56944,-0.27563,0.016476,-0.18302,-0.49146,-1.0693,-2.338,-2.6248,-2.8477,-3.249,-3.0959,-2.2187,-1.0303,0.61251,0.55369,0.40067,0.57218,0.92801,1.2113,1.3022,1.1691,0.8278,0.34938,0.086303,0.34173,0.47482,0.79142,0.9426,0.9304,0.67973,0.38626,0.13997,0.20229,0.41109,0.63501,0.89673,1.1712,1.3298,1.2952,1.082,0.82496,0.57193,0.68623,0.8168,0.82711,0.69458,0.49124,0.3262,0.27204,0.48941,0.70937,0.91038,1.0783,1.1934,1.2602,1.2732,1.1586,0.94143,0.81557,0.81491,0.88768,0.86637,0.6755,0.33044,0.084717,0.061063,0.099245,0.23548,0.29883,0.34526,0.42952,0.44932,0.3315,0.0069618,-0.25828,-0.48463,-0.42218,-0.3471,-0.35419,-0.45714,-0.56583,-0.6561,-0.6236,-0.40873,-0.24655,-0.11583,-0.05999,0.11214,0.2096,0.33184,0.24595,-0.047983,-0.21982,-0.15311,-0.16229,-0.29219,-0.38441,-0.57514,-0.4697,-0.25853,-0.10724,0.078189,0.32603,0.67545,0.83342,0.75877,0.64622,0.55364,0.50716,0.25439,-0.18838,-0.3577,-0.54426,-0.66742,-0.88832,-1.3351,-1.2654,-0.84888,-0.55042,-0.36033,-0.39839,-0.28135,-0.088854,0.046344,0.22998,0.27267,0.1539,0.14275,0.094333,-0.0024862,-0.17218,-0.2756,-0.52267,-0.77612,-0.86474,-0.9062,-0.87082,-0.85396,-0.84431,-0.86979,-0.8562,-0.85666,-0.85799,-0.86675,-0.82998,-0.88843,-1.0261,-1.0045,-0.84731,-0.69394,-0.67503,-0.80278,-0.9006,-0.88802,-0.85292,-0.74662,-0.75072,-0.78187,-0.78616,-0.88841,-0.99157,-1.0608,-1.1529,-1.157,-0.94589,-0.777,-0.67154,-0.58412,-0.48334,-0.42757,-0.27725,-0.10019,0.067398,0.16327,0.1963,0.12949,0.016694,-0.11799,-0.32465,-0.46797,-0.6002,-0.78684,-1.0989,-1.2917,-1.6382,-1.639,-1.4976,-1.2401,-0.6852,-0.15084,0.26313,0.99191,1.2259,1.3134,1.1778,1.0791,1.0069,1.0144,1.026,1.0092,0.91793,0.56021,0.39309,0.13686,0.20119,0.055631,0.021154,-0.14106,-0.22604,-0.33071,-0.47807,-0.64741,-0.59043,-0.42381,-0.024578,0.31261,0.49166,0.6441,0.59163,0.53953,0.6228,0.84094,1.0942,1.2839,1.444,1.4381,1.2862,1.1678,1.0114,0.93123,0.90885,1.0048,1.0993,1.0373,0.70588,0.50821,0.47461,0.48625,0.73463,0.91058,1.1142,1.1595,1.1373,0.96734,0.72789,0.55712,0.5378,0.79259,1.0558,1.1986,1.1864,1.1103,0.94349,0.86631,0.96068,1.1886,1.4253,1.5075,1.4576,1.2997,1.0714,0.75139,0.58096,0.52597,0.62279,0.85273,0.91158,0.75843,0.5297,0.41682,0.42634,0.56079,0.75654,0.91859,0.90402,0.78937,0.56798,0.28797,0.062274,-0.13078,-0.10899,0.01806,0.19656,0.28214,0.22959,0.029033,-0.085165,-0.055615,0.1835,0.43863,0.54964,0.54721,0.40561,0.12616,-0.19258,-0.42267,-0.4699,-0.47593,-0.28723,-0.16984,-0.25031,-0.44799,-0.59276,-0.65049,-0.53056,-0.23274,-0.048698,0.0012431,-0.10726,-0.34828,-0.71339,-1.0533,-1.3455,-1.4938,-1.4552,-1.2904,-1.3125,-1.3524,-1.5168,-1.5049,-1.3424,-0.79234,-0.41841,0.024289,0.12691,-0.043149,-0.37284,-0.65583,-0.99668,-1.4793,-1.7249,-1.5604,-1.465,-2.316,-3.0628,-3.8185,-4.2386,-3.7411,-3.2722,-3.2271,-3.2963,-3.2592,-2.9808,-1.8153,-1.2682,-1.3589,-1.4438,-1.3538,-0.95416,-0.62426,-0.6131,-0.86088,-1.2612,-1.5321,-1.4666,-1.3725,-1.6679,-1.8339,-2.2337,-3.03,-3.7612,-4.3585,-4.9882,-6.3455,-7.1098,-7.7045,-8.7128,-8.7807,-7.7417,-6.7382,-4.5996,-3.8048,-3.8297,-4.1761,-4.5148,-4.6891,-1.337,4.1662,3.8206,12.254,12.881,13.449,13.874,13.442,12.923,12.399,9.219,7.2852,5.7967,5.8559,8.2538,9.4008,10.224,10.801,10.298,9.223,8.5228,8.0015,7.8135,7.3017,7.109,6.4948,5.4112,4.6689,3.9211,1.2761,-0.39603,-4.1409,-4.2624,-4.4571,-4.3875,-4.53,-4.5219,-4.9957,-5.5287,-6.4431,-5.6418,-4.676,-3.9539,-3.4541,-3.3856,-3.7798,-4.5765,-4.8435,-4.6924,-3.6224,-2.9181,-2.2348,-0.54915,0.16284,1.2524,1.425,1.606,2.0712,2.6689,3.4251,3.0824,2.6742,2.2237,2.6465,3.0135,3.0425,2.5129,1.4031,0.75516,-0.35868,-0.9641,-0.93028,-1.0296,-1.945,-2.3135,-3.2728,-3.3324,-2.6167,-1.7719,-1.3392,-1.165,-1.1136,-1.0448,-1.3725,-2.3333,-3.6549,-3.7299,-3.7074,-3.5173,-2.9792,-2.3975,-1.8417,-1.0243,-1.1058,-1.0135,-1.0025,-0.96813,-0.99854,-0.83863,-0.68956,-0.57206,-0.38708,-0.60747,-0.78946,-0.83997,-0.54562,-0.34782,-0.18278,-0.15614,0.05459,0.27041,0.41004,0.41142,0.39365,0.35696,0.28861,0.1051,-0.13726,-0.39702,-0.65999,-0.83817,-1.0887,-1.0532,-0.77742,-0.49772,-0.23749,0.11776,0.42083,0.5898,0.64778,0.70251,0.7083,0.57061,0.32668,0.0050638,-0.26856,-0.41236,-0.47706,-0.59503,-0.52092,-0.36431,0.07367,0.32525,0.57993,0.71684,0.6737,0.61191,0.55672,0.61456,0.49201,0.31055,0.08081,-0.076968,-0.1793,-0.29874,-0.30183,-0.19418,0.080006,0.3624,0.71358,0.96221,1.1918,1.2152,1.1624,1.0504,0.8555,0.67731,0.50175,0.3028,0.15267,0.085976,-0.024417,-0.035425,0.028555,0.26738,0.58343,0.82638,0.89839,0.83866,0.78842,0.72461,0.6452,0.59395,0.37003,0.17489,0.022703,-0.039185,-0.042997,-0.083854,-0.29787,-0.26888,0.048426,0.46454,0.84439,1.1601,1.0936,0.99223,0.89529,0.6637,0.41358,0.23566,0.11824,0.098084,0.0014172,-0.072456,-0.23762,-0.26982,-0.23941,0.041981,0.34698,0.47274,0.46009,0.40947,0.39733,0.35624,0.27916,0.21964,0.065631,-0.074116,-0.18624,-0.28865,-0.41006,-0.48178,-0.36576,-0.2504,-0.020666,0.15653,0.14195,0.048997,0.0020711,0.018639,0.071186,0.073799,-0.09404,-0.28025,-0.35349,-0.26083,-0.27929,-0.34487,-0.43584,-0.35766,-0.16255,0.076753,0.23091,0.19352,0.12453,0.031931,0.007217,-0.038423,-0.18638,-0.29295,-0.31184,-0.23929,-0.10757,-0.17623,-0.35,-0.56858,-0.5655,-0.30288,-0.075582,-0.025757,-0.023138,-11.008,-9.862,-10.589,-7.1071,-4.7197,-4.1348,-3.4456,-1.8961,0.7343,2.5891,5.1162,7.54,9.8578,11.485,12.028,12.021,11.796,12.377,12.299,12.384,13.056,13.694,14.425,16.027,16.232,16.762,17.738,19.281,20.711,21.644,21.955,21.381,19.903,18.475,17.157,15.397,13.489,12.222,10.893,8.9304,4.9314,4.8166,5.5666,3.5826,-26.731,-51.822,-44.499,-27.124,-17.242,-6.6351,-10.214,-10.275,-8.2103,-1.4701,0.99444,2.2908,0.54109,-1.7218,-2.436,-3.1182,-2.3764,-1.2713,-0.22678,0.73761,0.57617,0.025473,-0.36398,-0.97046,-1.6512,-2.1667,-2.6014,-2.8447,-2.7242,-2.746,-2.8283,-2.8807,-2.3551,-1.1803,0.11175,0.4709,0.55145,0.47864,0.057869,-0.12724,-0.77436,-1.513,-2.132,-2.3838,-2.5766,-2.5779,-2.472,-2.4912,-2.453,-1.7642,-0.53219,0.69958,1.3273,1.2001,0.59357,-0.20529,-0.77378,-1.199,-1.5532,-1.7735,-1.8437,-1.6904,-1.6916,-1.7142,-1.7511,-1.422,-0.73368,0.35762,1.3201,1.6751,1.3766,0.80983,0.29914,-0.066127,-0.48246,-1.073,-1.5084,-1.4341,-1.229,-1.0356,-1.0488,-1.4031,-1.233,-0.25702,0.68123,1.411,1.3832,0.82862,0.40821,0.067043,-0.22146,-0.57127,-0.98447,-1.2039,-0.95682,-0.66051,-0.61158,-0.81618,-1.082,-0.68053,0.40015,1.9344,2.5602,2.3024,1.2921,0.77696,0.42224,-0.037326,-0.91247,-1.5684,-1.9136,-2.02,-1.626,-1.4112,-1.6766,-1.9111,-1.4659,-0.55029,0.61348,1.0601,1.0499,1.8107,2.7307,3.3559,3.9963,3.7335,4.1099,4.9303,5.364,5.3868,4.9203,4.3048,4.2475,4.6866,5.1983,5.3155,4.6825,2.9563,1.3346,0.53042,-0.29926,-2.2555,-3.1756,-3.9852,-5.499,-9.3176,-9.1581,-3.9767,-1.4252,0.47591,1.3056,1.2189,-0.22469,-0.8221,-1.1267,-0.6752,-0.4058,-0.18731,-0.32252,-0.5903,-0.67633,-0.41212,0.025368,0.073496,-0.22842,-0.48119,-0.29506,0.5915,1.254,1.5082,1.1528,0.72625,0.44575,0.39907,0.55746,0.47198,0.24158,0.14497,0.24265,0.41963,0.27651,-0.073337,-0.30312,-0.13704,0.34772,0.69982,0.64553,0.091825,-0.21104,-0.098168,0.24028,0.34922,-0.038867,-0.23529,-0.47042,-0.37572,-0.40674,-0.6884,-1.0465,-1.1085,-0.75055,-0.27503,-0.05459,-0.3104,-0.54328,-0.68341,-0.41218,0.048997,0.31332,0.26489,0.22024,0.20985,0.30829,0.17759,-0.17756,-0.61631,-0.68741,-0.38296,0.013925,-0.055014,-0.47256,-1.02,-1.0519,-0.63958,-0.090105,0.15553,0.13767,0.23477,0.35439,0.47051,0.28321,-0.032726,-0.24832,-0.089637,0.44107,0.73301,0.53819,0.07913,-0.27912,-0.2329,0.14095,0.43047,0.52912,0.38181,0.30833,0.30874,0.23851,-0.029567,-0.3455,-0.49689,-0.29741,0.082407,0.32531,0.057425,-0.47952,-0.96314,-0.80383,-0.42526,-0.079594,-0.03763,-0.12061,-0.10186,0.0653,0.078016,-0.13433,-0.44903,-0.39383,0.061815,0.49163,0.4365,-0.080971,-0.769,-0.97216,-0.59876,-0.10823,0.25979,0.31718,0.33592,0.36416,0.46055,0.21141,-0.14247,-0.26027,-0.13832,0.28631,0.61145,0.50532,0.035503,-0.46094,-0.48439,-0.081087,0.36629,0.53208,0.48579,0.46529,0.42222,0.51793,0.3205,-0.027325,-0.21978,0.013953,0.52717,0.66791,0.43543,-0.15213,-0.49992,-0.30399,0.24599,0.67325,0.69438,0.47879,0.38837,0.38851,0.36393,0.19407,0.0084267,0.078612,0.49508,1.0134,1.0458,0.56641,-0.14047,-0.53543,-0.36367,0.088307,0.41675,0.48179,0.34381,0.27616,0.27515,0.16071,-0.10786,-0.2056,-0.039369,0.45859,0.84897,0.77555,0.14122,-0.48504,-0.6753,-0.36962,0.12372,0.3591,0.28344,0.21764,0.10634,0.019508,-0.14721,-0.40897,-0.33898,0.052149,0.62864,0.98524,0.66299,-0.096121,-0.71199,-0.72917,-0.37012,-0.0083632,0.079273,-0.02942,-0.10606,-0.06198,-0.10162,-0.31491,-0.52811,-0.32246,0.20849,0.88111,1.0639,0.52465,-0.35139,-0.91317,-0.80803,-0.41475,-0.074673,-0.16558,-0.41795,-0.54896,-0.51418,-0.59813,-0.80127,-0.91483,-0.57635,0.17692,0.7532,0.71028,-0.028747,-0.84491,-1.3561,-1.2013,-0.8764,-0.77995,-0.93663,-1.1221,-1.0273,-0.94519,-1.0474,-1.4373,-1.4346,-0.91413,-0.37021,-0.20246,-1.0022,-3.3504,-6.8824,-8.7534,-9.8642,-12.767,-14.214,-15.453,-16.477,-16.419,-15.976,-16.176,-13.409,-11.629,-8.869,-2.915,2.9403,4.6406,5.4568,7.086,8.0194,11.088,12.808,14.181,18.369,20.411,23.051,23.513,22.891,22.291,22.287,22.453,22.613,21.8,20.979,18.302,16.812,15.871,13.708,12.187,8.4749,6.6318,2.2165,0.27154,-5.931,-4.9416,-1.7194,-14.075,-28.184,-44.941,-45.282,-13.698,-7.5371,-6.349,-13.832,-15.263,-11.759,-9.322,-7.4865,-7.9639,-9.025,-10.636,-10.883,-10.367,-9.4724,-8.4644,-7.9712,-7.7066,-8.8667,-10.043,-10.154,-8.3888,-5.7792,-4.7359,-2.2615,-0.77828,0.75915,3.1356,3.9209,5.3458,6.6731,9.3448,10.232,12.024,12.109,11.394,11.263,12.591,13.926,13.999,13.948,14.158,14.704,15.122,14.895,14.603,14.786,15.699,16.288,16.648,15.758,14.332,12.084,10.914,9.2769,8.8754,6.7427,5.0816,4.4559,4.3191,3.6234,3.2811,1.1872,-1.8091,-9.2858,-11.314,-10.946,-21.492,-26.616,-27.359,-23.326,-18.088,-17.966,-19.453,-19.446,-18.461,-16.716,-16.093,-15.062,-14.281,-12.501,-10.876,-9.8937,-9.1616,-9.6638,-9.7687,-10.183,-9.7615,-9.6135,-10.305,-8.9675,-7.6937,-4.2547,-2.5684,-1.5738,0.36079,2.2951,4.1878,6.3355,7.8175,9.2771,9.5353,11.727,12.991,13.316,12.638,12.636,12.503,13.19,14.237,14.976,14.776,14.45,14.169,15.19,16.234,16.626,14.892,13.69,12.7,11.387,10.013,7.8416,4.2787,3.4058,3.0059,5.8034,6.9494,6.6389,-2.8377,-18.508,-27.699,-27.945,-27.27,-23.819,-22.292,-18.097,-17.701,-17.647,-17.709,-17.329,-15.993,-14.081,-11.91,-11.949,-12.291,-11.66,-10.432,-8.5141,-6.7997,-6.3692,-7.0405,-5.7975,-3.0623,-0.8595,-0.13545,0.40569,2.3405,3.6024,6.2128,7.8604,8.8412,8.5584,13.086,15.839,17.713,20.244,19.827,20.92,21.658,21.08,19.477,17.897,15.712,15.238,15.693,15.27,14.693,12.664,11.568,9.0929,9.8829,11.078,9.2765,6.2113,5.7746,3.2047,-0.88975,-2.3761,6.7821,6.3131,-2.5889,-24.964,-32.371,-32.457,-24.803,-8.499,-3.3271,-1.06,-3.1241,-3.8572,-3.7903,-3.2007,-3.3313,-3.205,-2.5073,-2.9137,-2.8569,-2.0097,-1.0795,-0.91093,-1.342,-2.2974,-2.1328,-1.2055,0.059438,0.3673,-0.15304,-0.57471,-1.0489,-1.2057,-1.8409,-2.8686,-3.5617,-3.3763,-2.5366,-1.4501,-1.2079,-1.5548,-1.7328,-1.2328,-0.52314,0.17376,0.26717,-0.19132,-0.55943,-0.46895,-0.61976,-1.5396,-2.5731,-2.8126,-2.1838,-1.0611,-0.49535,-0.69462,-1.5862,-1.6341,-1.1276,-0.3149,0.024981,-0.19495,-0.56939,-1.0722,-1.3417,-2.2244,-3.4077,-5.3992,-5.7867,-5.1847,-4.221,-3.8058,-3.5321,-3.9243,-3.5709,-1.69,-0.34992,1.0122,1.3148,2.2393,2.6369,2.9581,3.2943,2.631,2.3488,2.7974,3.638,4.5627,4.9455,5.3224,5.385,6.176,6.8098,6.926,6.5075,5.5994,5.4313,5.5563,5.7613,6.0868,5.2883,4.8995,5.4365,4.6651,4.1803,1.0539,-0.6735,-1.7039,-1.3065,-0.95578,-1.6626,-2.6823,-5.613,-9.9185,-13.79,-14.372,-6.2811,-2.1295,0.17992,-0.17263,-0.83092,-1.6368,-1.8406,-0.34808,0.046776,-0.29057,-0.4159,-0.3922,0.14164,0.47635,1.0184,1.099,0.32014,-0.61929,-1.2606,-1.1126,-0.29233,0.45951,0.58325,0.28524,-0.16826,-0.31452,-0.15155,-0.0581,-0.027965,-0.042435,0.095851,0.28336,0.10538,-0.39376,-0.92376,-1.1187,-0.65045,0.0038468,0.29075,0.060365,-0.56798,-0.97943,-0.87531,-0.82631,-0.81803,-0.89323,-0.65619,-0.13683,0.16664,0.074902,-0.338,-0.69927,-0.58858,0.057856,0.81058,0.9368,0.41767,-0.06975,-0.30689,-0.28297,-0.27581,-0.40629,-0.36357,-0.10352,0.22627,0.45008,0.28784,-0.10921,-0.27185,0.11602,0.72726,1.0983,1.0645,0.63227,0.14182,-0.12338,-0.2178,-0.30366,-0.42504,-0.26702,0.093053,0.4432,0.53574,0.28596,0.079187,0.2551,0.68419,1.1711,1.3832,1.1243,0.58664,0.1541,-0.26052,-0.48255,-0.64994,-0.62596,-0.39109,0.01208,0.37425,0.50672,0.45966,0.396,0.71335,1.276,1.7413,1.8148,1.5377,1.0653,0.57781,0.20845,-0.041706,-0.19197,-0.14556,0.13516,0.56027,0.79709,0.78572,0.80424,0.95815,1.2643,1.7008,1.9313,1.8655,1.4889,0.87957,0.33963,-0.18166,-0.532,-0.61251,-0.42403,-0.070308,0.17724,0.33733,0.38788,0.54268,0.87549,1.3297,1.744,1.8692,1.7006,1.2769,0.73077,0.23263,-0.26135,-0.6167,-0.59496,-0.32969,-0.032876,0.16244,0.31882,0.47675,0.77161,1.1199,1.5034,1.6875,1.6595,1.3862,0.90689,0.244,-0.40653,-0.90483,-1.1348,-1.0054,-0.66989,-0.40507,-0.25339,-0.1317,-0.020436,0.31855,0.77285,1.1644,1.3169,1.1694,0.87581,0.20195,-0.4755,-1.0934,-1.4982,-1.5322,-1.3517,-1.0759,-0.86756,-0.73083,-0.59646,-0.25113,0.20268,0.57032,0.76374,0.83726,0.70739,0.30622,-0.35084,-1.1525,-1.8424,-2.2104,-2.0735,-1.8127,-1.6026,-1.6337,-1.5081,-1.2471,-0.79546,-0.26995,0.088585,0.21753,0.23737,0.060643,-0.43107,-1.2001,-2.0534,-2.6342,-2.776,-2.5586,-2.3424,-2.226,-2.2513,-2.1695,-1.7646,-1.2717,-0.78054,-0.47146,-0.38961,-0.39718,-0.67716,-1.2837,-2.1946,-3.2354,-3.8754,-4.845,-5.3553,-7.4153,-8.6265,-10.023,-11.171,-13.347,-13.836,-13.134,-12.248,-12.146,-11.802,-11.181,-10.421,-7.5689,-8.3467,-3.0998,-1.4244,2.1883,3.7571,4.7936,5.5151,7.1781,9.4566,11.055,12.692,12.95,12.585,12.455,12.766,14.015,13.899,14.025,13.92,14.111,14.284,14.478,14.652,14.647,14.685,15.265,15.986,16.615,16.956,16.921,15.516,14.229,12.044,10.337,9.8896,6.8806,6.0254,3.0947,-1.7649,-1.9305,-4.4345,-7.027,-14.295,-32.763,-35.652,-30.709,-15.192,-6.3022,-7.3215,-10.742,-14.624,-14.618,-13.442,-10.458,-8.6728,-8.5783,-8.2056,-8.0272,-7.8308,-7.5221,-7.2474,-7.057,-7.5174,-8.3672,-9.4849,-10.024,-9.4049,-9.3115,-8.6964,-6.6795,-5.8532,-5.1211,-3.264,-0.4195,1.059,2.6987,5.526,7.0039,8.8223,9.6974,10.977,11.101,10.088,11.137,12.14,13.072,14.188,14.988,15.626,15.581,15.515,15.766,16.349,17.059,17.3,17.388,16.453,15.606,14.375,12.64,11.504,10.258,9.5106,7.3953,6.1797,5.8435,0.67352,-1.7957,-4.4613,-3.7505,-7.8272,-15.001,-14.573,-38.282,-32.239,-23.99,-8.7528,-5.5484,-9.935,-15.746,-15.139,-13.062,-7.6513,-6.4789,-6.5519,-6.6897,-6.6851,-6.1641,-5.5642,-5.1464,-5.2518,-5.9543,-7.0133,-10.397,-10.789,-10.109,-8.1407,-7.2674,-6.9254,-6.2066,-6.1724,-5.9019,-5.3819,-5.1204,-4.2255,-2.2081,-0.9368,0.59494,0.60524,0.1512,0.53845,1.1625,2.805,3.9118,4.5992,5.0131,5.0861,5.1955,5.3664,7.5906,8.8751,10.121,11.21,11.844,11.558,10.535,10.031,9.7599,10.199,10.873,11.525,11.886,11.736,11.817,11.723,12.272,13.221,14.334,15.474,15.745,14.755,13.975,10.338,8.3617,7.0006,5.274,4.7698,2.8921,1.7011,-1.3606,-3.7284,-6.8634,-7.9844,-9.4989,-12.914,-26.211,-30.821,-26.505,-16.737,-14.676,-14.847,-19.13,-20.422,-21.161,-20.317,-17.81,-16.887,-15.954,-14.821,-13.882,-13.314,-12.332,-10.838,-9.2875,-8.1084,-5.7008,-5.1114,-3.8566,-0.38525,2.8056,3.3449,6.6254,7.4133,8.5333,9.9809,10.849,14.456,16.846,18.202,18.356,18.059,18.275,17.226,15.563,14.894,14.101,14.667,14.833,13.609,12.211,10.36,7.6118,4.4338,3.9131,4.1805,4.4859,3.6526,-0.2065,-7.4865,-8.5572,2.6692,5.2882,0.37367,-9.6329,-19.994,-22.304,-19.406,-14.103,-3.2843,-2.2355,-3.9723,-2.8082,-1.6037,-1.8578,-1.6317,-0.4165,1.2737,0.62995,-0.49112,-0.15949,2.8088e-05,-0.60669,-1.6034,-2.1369,-2.0071,-1.3187,-0.28097,0.32251,1.0674,1.5415,1.3666,0.16517,-0.44937,-0.89125,-0.75161,-0.10088,0.81447,1.0192,0.69623,-0.29357,-1.1747,-1.1362,-1.0078,-0.3289,0.69386,1.6323,2.2363,1.8567,0.53403,-0.32559,-1.1832,-0.84214,0.33846,1.5057,1.7536,1.844,1.2565,-0.0087206,-0.6194,-0.58191,0.076162,0.92836,1.5363,1.5817,0.63788,-0.60657,-1.7008,-1.9976,-1.3766,-0.3439,0.97646,1.1324,1.0188,0.34604,-0.23563,-0.46883,-0.13799,0.63276,1.4726,2.1577,2.1906,3.0174,2.9715,3.6305,3.8098,4.2846,4.7191,5.1901,4.8404,4.2197,3.8523,3.3191,2.9006,1.8983,1.6369,0.52296,0.90121,-1.2027,-2.1336,-3.0438,-3.7896,-3.7685,-3.616,-2.9978,-2.2172,6.9494,6.6389,-2.8377,-18.508,-27.699,-27.945,-27.27,-23.819,-22.292,-18.097,-17.701,-17.647,-17.709,-17.329,-15.993,-14.081,-11.91,-11.949,-12.291,-11.66,-10.432,-8.5141,-6.7997,-6.3692,-7.0405,-5.7975,-3.0623,-0.8595,-0.13545,0.40569,2.3405,3.6024,6.2128,7.8604,8.8412,8.5584,13.086,15.839,17.713,20.244,19.827,20.92,21.658,21.08,19.477,17.897,15.712,15.238,15.693,15.27,14.693,12.664,11.568,9.0929,9.8829,11.078,9.2765,6.2113,5.7746,3.2047,-0.88975,-2.3761,6.7821,6.3131,-2.5889,-24.964,-32.371,-32.457,-24.803,-8.499,-3.3271,-1.06,-3.1241,-3.8572,-3.7903,-3.2007,-3.3313,-3.205,-2.5073,-2.9137,-2.8569,-2.0097,-1.0795,-0.91093,-1.342,-2.2974,-2.1328,-1.2055,0.059438,0.3673,-0.15304,-0.57471,-1.0489,-1.2057,-1.8409,-2.8686,-3.5617,-3.3763,-2.5366,-1.4501,-1.2079,-1.5548,-1.7328,-1.2328,-0.52314,0.17376,0.26717,-0.19132,-0.55943,-0.46895,-0.61976,-1.5396,-2.5731,-2.8126,-2.1838,-1.0611,-0.49535,-0.69462,-1.5862,-1.6341,-1.1276,-0.3149,0.024981,-0.19495,-0.56939,-1.0722,-1.3417,-2.2244,-3.4077,-5.3992,-5.7867,-5.1847,-4.221,-3.8058,-3.5321,-3.9243,-3.5709,-1.69,-0.34992,1.0122,1.3148,2.2393,2.6369,2.9581,3.2943,2.631,2.3488,2.7974,3.638,4.5627,4.9455,5.3224,5.385,6.176,6.8098,6.926,6.5075,5.5994,5.4313,5.5563,5.7613,6.0868,5.2883,4.8995,5.4365,4.6651,4.1803,1.0539,-0.6735,-1.7039,-1.3065,-0.95578,-1.6626,-2.6823,-5.613,-9.9185,-13.79,-14.372,-6.2811,-2.1295,0.17992,-0.17263,-0.83092,-1.6368,-1.8406,-0.34808,0.046776,-0.29057,-0.4159,-0.3922,0.14164,0.47635,1.0184,1.099,0.32014,-0.61929,-1.2606,-1.1126,-0.29233,0.45951,0.58325,0.28524,-0.16826,-0.31452,-0.15155,-0.0581,-0.027965,-0.042435,0.095851,0.28336,0.10538,-0.39376,-0.92376,-1.1187,-0.65045,0.0038468,0.29075,0.060365,-0.56798,-0.97943,-0.87531,-0.82631,-0.81803,-0.89323,-0.65619,-0.13683,0.16664,0.074902,-0.338,-0.69927,-0.58858,0.057856,0.81058,0.9368,0.41767,-0.06975,-0.30689,-0.28297,-0.27581,-0.40629,-0.36357,-0.10352,0.22627,0.45008,0.28784,-0.10921,-0.27185,0.11602,0.72726,1.0983,1.0645,0.63227,0.14182,-0.12338,-0.2178,-0.30366,-0.42504,-0.26702,0.093053,0.4432,0.53574,0.28596,0.079187,0.2551,0.68419,1.1711,1.3832,1.1243,0.58664,0.1541,-0.26052,-0.48255,-0.64994,-0.62596,-0.39109,0.01208,0.37425,0.50672,0.45966,0.396,0.71335,1.276,1.7413,1.8148,1.5377,1.0653,0.57781,0.20845,-0.041706,-0.19197,-0.14556,0.13516,0.56027,0.79709,0.78572,0.80424,0.95815,1.2643,1.7008,1.9313,1.8655,1.4889,0.87957,0.33963,-0.18166,-0.532,-0.61251,-0.42403,-0.070308,0.17724,0.33733,0.38788,0.54268,0.87549,1.3297,1.744,1.8692,1.7006,1.2769,0.73077,0.23263,-0.26135,-0.6167,-0.59496,-0.32969,-0.032876,0.16244,0.31882,0.47675,0.77161,1.1199,1.5034,1.6875,1.6595,1.3862,0.90689,0.244,-0.40653,-0.90483,-1.1348,-1.0054,-0.66989,-0.40507,-0.25339,-0.1317,-0.020436,0.31855,0.77285,1.1644,1.3169,1.1694,0.87581,0.20195,-0.4755,-1.0934,-1.4982,-1.5322,-1.3517,-1.0759,-0.86756,-0.73083,-0.59646,-0.25113,0.20268,0.57032,0.76374,0.83726,0.70739,0.30622,-0.35084,-1.1525,-1.8424,-2.2104,-2.0735,-1.8127,-1.6026,-1.6337,-1.5081,-1.2471,-0.79546,-0.26995,0.088585,0.21753,0.23737,0.060643,-0.43107,-1.2001,-2.0534,-2.6342,-2.776,-2.5586,-2.3424,-2.226,-2.2513,-2.1695,-1.7646,-1.2717,-0.78054,-0.47146,-0.38961,-0.39718,-0.67716,-1.2837,-2.1946,-3.2354,-3.8754,-4.845,-5.3553,-7.4153,-8.6265,-10.023,-11.171,-13.347,-13.836,-13.134,-12.248,-12.146,-11.802,-11.181,-10.421,-7.5689,-8.3467,-3.0998,-1.4244,2.1883,3.7571,4.7936,5.5151,7.1781,9.4566,11.055,12.692,12.95,12.585,12.455,12.766,14.015,13.899,14.025,13.92,14.111,14.284,14.478,14.652,14.647,14.685,15.265,15.986,16.615,16.956,16.921,15.516,14.229,12.044,10.337,9.8896,6.8806,6.0254,3.0947,-1.7649,-1.9305,-4.4345,-7.027,-14.295,-32.763,-35.652,-30.709,-15.192,-6.3022,-7.3215,-10.742,-14.624,-14.618,-13.442,-10.458,-8.6728,-8.5783,-8.2056,-8.0272,-7.8308,-7.5221,-7.2474,-7.057,-7.5174,-8.3672,-9.4849,-10.024,-9.4049,-9.3115,-8.6964,-6.6795,-5.8532,-5.1211,-3.264,-0.4195,1.059,2.6987,5.526,7.0039,8.8223,9.6974,10.977,11.101,10.088,11.137,12.14,13.072,14.188,14.988,15.626,15.581,15.515,15.766,16.349,17.059,17.3,17.388,16.453,15.606,14.375,12.64,11.504,10.258,9.5106,7.3953,6.1797,5.8435,0.67352,-1.7957,-4.4613,-3.7505,-7.8272,-15.001,-14.573,-38.282,-32.239,-23.99,-8.7528,-5.5484,-9.935,-15.746,-15.139,-13.062,-7.6513,-6.4789,-6.5519,-6.6897,-6.6851,-6.1641,-5.5642,-5.1464,-5.2518,-5.9543,-7.0133,-10.397,-10.789,-10.109,-8.1407,-7.2674,-6.9254,-6.2066,-6.1724,-5.9019,-5.3819,-5.1204,-4.2255,-2.2081,-0.9368,0.59494,0.60524,0.1512,0.53845,1.1625,2.805,3.9118,4.5992,5.0131,5.0861,5.1955,5.3664,7.5906,8.8751,10.121,11.21,11.844,11.558,10.535,10.031,9.7599,10.199,10.873,11.525,11.886,11.736,11.817,11.723,12.272,13.221,14.334,15.474,15.745,14.755,13.975,10.338,8.3617,7.0006,5.274,4.7698,2.8921,1.7011,-1.3606,-3.7284,-6.8634,-7.9844,-9.4989,-12.914,-26.211,-30.821,-26.505,-16.737,-14.676,-14.847,-19.13,-20.422,-21.161,-20.317,-17.81,-16.887,-15.954,-14.821,-13.882,-13.314,-12.332,-10.838,-9.2875,-8.1084,-5.7008,-5.1114,-3.8566,-0.38525,2.8056,3.3449,6.6254,7.4133,8.5333,9.9809,10.849,14.456,16.846,18.202,18.356,18.059,18.275,17.226,15.563,14.894,14.101,14.667,14.833,13.609,12.211,10.36,7.6118,4.4338,3.9131,4.1805,4.4859,3.6526,-0.2065,-7.4865,-8.5572,2.6692,5.2882,0.37367,-9.6329,-19.994,-22.304,-19.406,-14.103,-3.2843,-2.2355,-3.9723,-2.8082,-1.6037,-1.8578,-1.6317,-0.4165,1.2737,0.62995,-0.49112,-0.15949,2.8088e-05,-0.60669,-1.6034,-2.1369,-2.0071,-1.3187,-0.28097,0.32251,1.0674,1.5415,1.3666,0.16517,-0.44937,-0.89125,-0.75161,-0.10088,0.81447,1.0192,0.69623,-0.29357,-1.1747,-1.1362,-1.0078,-0.3289,0.69386,1.6323,2.2363,1.8567,0.53403,-0.32559,-1.1832,-0.84214,0.33846,1.5057,1.7536,1.844,1.2565,-0.0087206,-0.6194,-0.58191,0.076162,0.92836,1.5363,1.5817,0.63788,-0.60657,-1.7008,-1.9976,-1.3766,-0.3439,0.97646,1.1324,1.0188,0.34604,-0.23563,-0.46883,-0.13799,0.63276,1.4726,2.1577,2.1906,3.0174,2.9715,3.6305,3.8098,4.2846,4.7191,5.1901,4.8404,4.2197,3.8523,3.3191,2.9006,1.8983,1.6369,0.52296,0.90121,-1.2027,-2.1336,-3.0438,-3.7896,-3.7685,-3.616,-2.9978,-2.2172,-1.933,-2.4353,-3.147,-3.6084,-4.1005,-5.9825,-6.4665,-4.8286,-1.494,-0.91907,-1.4585,-2.9703,-3.4663,-2.754,-1.7603,-1.0491,-0.91146,-1.1415,-1.3992,-1.5654,-1.2079,-0.90095,-0.63199,-0.31839,-0.14436,-0.15659,-0.47308,-0.96413,-1.5156,-1.5847,-1.0747,-0.17752,0.37464,0.58194,0.38593,-0.087763,-0.55501,-0.76077,-0.7296,-0.47045,-0.093833,0.28026,0.27917,-0.20676,-0.76909,-1.2251,-1.1598,-0.68141,0.031325,0.50721,0.59774,0.48496,0.15027,-0.10482,-0.26268,-0.22555,0.051265,0.46956,0.74732,0.8219,0.47183,0.024181,-0.15082,0.0079224,0.32714,0.79686,1.1016,1.0892,0.87216,0.59419,0.31411,0.17008,0.24252,0.43329,0.67379,0.72859,0.55528,0.1879,-0.12686,-0.23165,-0.028977,0.46848,0.81107,1.0329,1.1578,1.0364,0.78624,0.37076,0.14296,0.1402,0.33978,0.64797,0.76017,0.56764,0.20784,-0.050007,-0.12028,0.037615,0.35235,0.7129,1.0143,1.1605,1.0783,0.81437,0.42335,0.11062,0.012056,0.15992,0.43937,0.51553,0.40323,0.10832,-0.1089,-0.034798,0.11727,0.40652,0.67577,0.99117,1.1614,1.1254,0.80482,0.34524,0.0021897,-0.052269,0.1744,0.43202,0.49361,0.2561,0.10655,0.012687,-0.05196,0.035522,0.29041,0.71761,1.0751,1.3645,1.3214,0.95046,0.31389,-0.033627,0.010492,0.20582,0.37804,0.48248,0.44774,0.3092,0.13498,0.048099,0.042305,0.23417,0.70968,1.1871,1.4321,1.2971,0.71006,0.067606,-0.29564,-0.29039,-0.084752,0.12457,0.22196,0.16003,0.10948,-0.039661,-0.12911,-0.20219,0.061949,0.61147,1.1385,1.2798,1.0597,0.45417,-0.11773,-0.43595,-0.35425,-0.17467,0.092597,0.27086,0.27254,0.072112,-0.24986,-0.48919,-0.45323,0.010901,0.74637,1.2662,1.3244,0.8861,0.21831,-0.3659,-0.58993,-0.553,-0.31416,-0.087426,0.055177,0.011884,-0.2405,-0.63791,-0.90961,-0.81708,-0.32085,0.36701,0.73592,0.66718,0.18234,-0.50515,-1.0371,-1.1297,-0.98477,-0.71104,-0.27885,0.044647,0.12545,-0.22398,-0.65016,-0.92891,-0.71794,-0.15216,0.53987,0.91518,0.71623,0.14655,-0.4827,-0.91255,-1.0744,-0.93493,-0.79668,-0.41989,-0.26656,-0.42154,-0.89362,-1.3336,-1.4644,-0.95552,-0.13518,0.4862,0.5621,0.094729,-0.6622,-1.3853,-1.8349,-1.9263,-1.6989,-1.2523,-0.8305,-0.70787,-1.1141,-1.7668,-2.3058,-2.1784,-1.5951,-0.78342,-0.42744,-0.54818,-1.1165,-1.8863,-2.3901,-2.8353,-3.1212,-3.506,-3.4675,-3.6496,-5.1538,-7.0262,-8.8834,-9.239,-7.5446,-6.3931,-5.3692,-5.8249,-8.0291,-9.2848,-10.377,-10.861,-10.626,-8.8682,-7.8063,-6.4536,-5.266,-3.4804,-2.5922,-2.1286,-1.0967,2.4774,4.7729,7.8779,8.8554,9.2603,10.261,11.692,12.278,12.956,15.333,16.833,19.239,20.115,19.984,19.537,19.597,19.699,20.217,20.644,20.638,20.398,19.318,16.979,15.599,14.239,11.62,10.712,8.6376,7.7516,6.8251,2.2763,-3.4346,-11.376,-14.061,-19.521,-40.015,-42.24,-26.541,-18.122,-11.633,-12.453,-11.566,-14.039,-10.569,-7.389,-4.795,-4.1705,-5.8124,-8.2507,-8.6811,-8.4373,-8.7161,-9.7234,-10.152,-10.611,-9.7124,-9.2494,-9.2109,-8.6748,-8.2735,-6.759,-4.9691,-3.4944,-3.1823,-3.3324,-3.075,0.36338,1.9945,3.2993,5.1598,5.7556,6.7326,7.0882,7.4169,7.8986,7.9603,9.0282,10.112,11.621,12.313,12.181,11.181,12.658,13.471,14.346,14.767,14.689,14.404,13.857,13.495,12.555,11.432,9.8071,9.5563,9.2441,9.4899,8.8943,7.5423,5.7426,4.8531,4.8385,4.2569,3.5486,2.2082,-0.42153,-1.0549,0.29496,-0.79289,-5.9853,-6.2065,-22.777,-39.306,-36.057,-17.79,-18.76,-2.1374,-3.2974,-6.7457,-11.613,-11.683,-10.579,-5.9409,-2.6624,-2.4057,-3.7447,-5.2577,-5.9617,-6.7042,-6.5341,-7.4742,-8.7624,-10.104,-10.461,-9.6515,-8.8958,-8.5766,-7.4068,-6.7007,-5.6374,-5.4491,-5.7526,-6.0751,-4.8234,-3.9427,-1.9415,0.22084,0.11751,1.1714,2.8335,3.521,4.9574,5.735,5.869,6.3523,6.9868,8.061,9.4267,9.9298,9.4066,9.2524,10.612,12.157,13.154,13.034,12.377,12.045,12.271,12.514,12.542,12.233,12.236,12.432,12.646,11.915,10.79,9.4266,8.3176,8.348,8.5601,7.8423,6.1372,4.2482,2.8425,1.6293,-0.25894,2.2892,0.15343,-4.1233,-26.732,-39.702,-33.377,-21.26,-10.688,-1.8394,-13.52,-17.895,-18.061,-15.143,-11.911,-9.4315,-9.4965,-11.696,-12.448,-12.637,-12.382,-11.814,-11.109,-10.594,-9.9812,-9.826,-7.3873,-5.4146,-3.3328,-0.90414,-0.5846,0.36365,3.161,4.9168,8.1083,9.5212,12.516,13.146,14.541,16.637,17.799,16.906,16.665,17.724,18.414,18.343,16.274,14.617,14.355,13.982,12.542,11.076,8.3867,7.1174,6.5543,5.2008,4.7659,2.8892,-2.1264,-5.0054,-2.8528,0.71971,-3.845,-7.7255,-7.9447,-13.225,-22.272,-19.572,-12.43,-1.3045,-1.9689,-3.0586,-3.4439,-1.8968,-1.9916,-2.8049,-2.4979,-1.2029,0.10537,1.0123,0.27705,-0.089698,-0.38802,-0.4862,-1.1133,-1.8981,-2.0149,-1.2637,-0.092157,0.67915,0.35824,-0.40361,-0.80863,-0.61113,-0.73282,-0.64918,-0.82879,-1.0447,-0.60225,0.0081599,-0.034208,-0.70116,-1.304,-1.3826,-0.63278,0.17556,0.31332,-0.21365,-0.66245,-0.73797,-0.53438,-0.30198,-0.46811,-0.68899,-0.61896,-0.3397,0.053108,-0.062645,-0.88051,-1.0332,-0.42566,0.61214,0.92471,0.53679,-0.15464,-0.49838,-0.46777,-0.13186,0.0088484,-0.5775,-0.97286,-1.209,-1.1055,-1.5566,-2.3502,-3.1484,-2.9274,-1.9398,-0.70652,-0.3321,-1.0178,-1.8042,-1.2259,-0.83938,-0.11085,0.93209,1.0709,1.2405,1.5731,1.8334,2.2261,2.1239,2.5394,2.9513,3.7053,4.4799,4.6193,13.221,14.334,15.474,15.745,14.755,13.975,10.338,8.3617,7.0006,5.274,4.7698,2.8921,1.7011,-1.3606,-3.7284,-6.8634,-7.9844,-9.4989,-12.914,-26.211,-30.821,-26.505,-16.737,-14.676,-14.847,-19.13,-20.422,-21.161,-20.317,-17.81,-16.887,-15.954,-14.821,-13.882,-13.314,-12.332,-10.838,-9.2875,-8.1084,-5.7008,-5.1114,-3.8566,-0.38525,2.8056,3.3449,6.6254,7.4133,8.5333,9.9809,10.849,14.456,16.846,18.202,18.356,18.059,18.275,17.226,15.563,14.894,14.101,14.667,14.833,13.609,12.211,10.36,7.6118,4.4338,3.9131,4.1805,4.4859,3.6526,-0.2065,-7.4865,-8.5572,2.6692,5.2882,0.37367,-9.6329,-19.994,-22.304,-19.406,-14.103,-3.2843,-2.2355,-3.9723,-2.8082,-1.6037,-1.8578,-1.6317,-0.4165,1.2737,0.62995,-0.49112,-0.15949,2.8088e-05,-0.60669,-1.6034,-2.1369,-2.0071,-1.3187,-0.28097,0.32251,1.0674,1.5415,1.3666,0.16517,-0.44937,-0.89125,-0.75161,-0.10088,0.81447,1.0192,0.69623,-0.29357,-1.1747,-1.1362,-1.0078,-0.3289,0.69386,1.6323,2.2363,1.8567,0.53403,-0.32559,-1.1832,-0.84214,0.33846,1.5057,1.7536,1.844,1.2565,-0.0087206,-0.6194,-0.58191,0.076162,0.92836,1.5363,1.5817,0.63788,-0.60657,-1.7008,-1.9976,-1.3766,-0.3439,0.97646,1.1324,1.0188,0.34604,-0.23563,-0.46883,-0.13799,0.63276,1.4726,2.1577,2.1906,3.0174,2.9715,3.6305,3.8098,4.2846,4.7191,5.1901,4.8404,4.2197,3.8523,3.3191,2.9006,1.8983,1.6369,0.52296,0.90121,-1.2027,-2.1336,-3.0438,-3.7896,-3.7685,-3.616,-2.9978,-2.2172,-1.933,-2.4353,-3.147,-3.6084,-4.1005,-5.9825,-6.4665,-4.8286,-1.494,-0.91907,-1.4585,-2.9703,-3.4663,-2.754,-1.7603,-1.0491,-0.91146,-1.1415,-1.3992,-1.5654,-1.2079,-0.90095,-0.63199,-0.31839,-0.14436,-0.15659,-0.47308,-0.96413,-1.5156,-1.5847,-1.0747,-0.17752,0.37464,0.58194,0.38593,-0.087763,-0.55501,-0.76077,-0.7296,-0.47045,-0.093833,0.28026,0.27917,-0.20676,-0.76909,-1.2251,-1.1598,-0.68141,0.031325,0.50721,0.59774,0.48496,0.15027,-0.10482,-0.26268,-0.22555,0.051265,0.46956,0.74732,0.8219,0.47183,0.024181,-0.15082,0.0079224,0.32714,0.79686,1.1016,1.0892,0.87216,0.59419,0.31411,0.17008,0.24252,0.43329,0.67379,0.72859,0.55528,0.1879,-0.12686,-0.23165,-0.028977,0.46848,0.81107,1.0329,1.1578,1.0364,0.78624,0.37076,0.14296,0.1402,0.33978,0.64797,0.76017,0.56764,0.20784,-0.050007,-0.12028,0.037615,0.35235,0.7129,1.0143,1.1605,1.0783,0.81437,0.42335,0.11062,0.012056,0.15992,0.43937,0.51553,0.40323,0.10832,-0.1089,-0.034798,0.11727,0.40652,0.67577,0.99117,1.1614,1.1254,0.80482,0.34524,0.0021897,-0.052269,0.1744,0.43202,0.49361,0.2561,0.10655,0.012687,-0.05196,0.035522,0.29041,0.71761,1.0751,1.3645,1.3214,0.95046,0.31389,-0.033627,0.010492,0.20582,0.37804,0.48248,0.44774,0.3092,0.13498,0.048099,0.042305,0.23417,0.70968,1.1871,1.4321,1.2971,0.71006,0.067606,-0.29564,-0.29039,-0.084752,0.12457,0.22196,0.16003,0.10948,-0.039661,-0.12911,-0.20219,0.061949,0.61147,1.1385,1.2798,1.0597,0.45417,-0.11773,-0.43595,-0.35425,-0.17467,0.092597,0.27086,0.27254,0.072112,-0.24986,-0.48919,-0.45323,0.010901,0.74637,1.2662,1.3244,0.8861,0.21831,-0.3659,-0.58993,-0.553,-0.31416,-0.087426,0.055177,0.011884,-0.2405,-0.63791,-0.90961,-0.81708,-0.32085,0.36701,0.73592,0.66718,0.18234,-0.50515,-1.0371,-1.1297,-0.98477,-0.71104,-0.27885,0.044647,0.12545,-0.22398,-0.65016,-0.92891,-0.71794,-0.15216,0.53987,0.91518,0.71623,0.14655,-0.4827,-0.91255,-1.0744,-0.93493,-0.79668,-0.41989,-0.26656,-0.42154,-0.89362,-1.3336,-1.4644,-0.95552,-0.13518,0.4862,0.5621,0.094729,-0.6622,-1.3853,-1.8349,-1.9263,-1.6989,-1.2523,-0.8305,-0.70787,-1.1141,-1.7668,-2.3058,-2.1784,-1.5951,-0.78342,-0.42744,-0.54818,-1.1165,-1.8863,-2.3901,-2.8353,-3.1212,-3.506,-3.4675,-3.6496,-5.1538,-7.0262,-8.8834,-9.239,-7.5446,-6.3931,-5.3692,-5.8249,-8.0291,-9.2848,-10.377,-10.861,-10.626,-8.8682,-7.8063,-6.4536,-5.266,-3.4804,-2.5922,-2.1286,-1.0967,2.4774,4.7729,7.8779,8.8554,9.2603,10.261,11.692,12.278,12.956,15.333,16.833,19.239,20.115,19.984,19.537,19.597,19.699,20.217,20.644,20.638,20.398,19.318,16.979,15.599,14.239,11.62,10.712,8.6376,7.7516,6.8251,2.2763,-3.4346,-11.376,-14.061,-19.521,-40.015,-42.24,-26.541,-18.122,-11.633,-12.453,-11.566,-14.039,-10.569,-7.389,-4.795,-4.1705,-5.8124,-8.2507,-8.6811,-8.4373,-8.7161,-9.7234,-10.152,-10.611,-9.7124,-9.2494,-9.2109,-8.6748,-8.2735,-6.759,-4.9691,-3.4944,-3.1823,-3.3324,-3.075,0.36338,1.9945,3.2993,5.1598,5.7556,6.7326,7.0882,7.4169,7.8986,7.9603,9.0282,10.112,11.621,12.313,12.181,11.181,12.658,13.471,14.346,14.767,14.689,14.404,13.857,13.495,12.555,11.432,9.8071,9.5563,9.2441,9.4899,8.8943,7.5423,5.7426,4.8531,4.8385,4.2569,3.5486,2.2082,-0.42153,-1.0549,0.29496,-0.79289,-5.9853,-6.2065,-22.777,-39.306,-36.057,-17.79,-18.76,-2.1374,-3.2974,-6.7457,-11.613,-11.683,-10.579,-5.9409,-2.6624,-2.4057,-3.7447,-5.2577,-5.9617,-6.7042,-6.5341,-7.4742,-8.7624,-10.104,-10.461,-9.6515,-8.8958,-8.5766,-7.4068,-6.7007,-5.6374,-5.4491,-5.7526,-6.0751,-4.8234,-3.9427,-1.9415,0.22084,0.11751,1.1714,2.8335,3.521,4.9574,5.735,5.869,6.3523,6.9868,8.061,9.4267,9.9298,9.4066,9.2524,10.612,12.157,13.154,13.034,12.377,12.045,12.271,12.514,12.542,12.233,12.236,12.432,12.646,11.915,10.79,9.4266,8.3176,8.348,8.5601,7.8423,6.1372,4.2482,2.8425,1.6293,-0.25894,2.2892,0.15343,-4.1233,-26.732,-39.702,-33.377,-21.26,-10.688,-1.8394,-13.52,-17.895,-18.061,-15.143,-11.911,-9.4315,-9.4965,-11.696,-12.448,-12.637,-12.382,-11.814,-11.109,-10.594,-9.9812,-9.826,-7.3873,-5.4146,-3.3328,-0.90414,-0.5846,0.36365,3.161,4.9168,8.1083,9.5212,12.516,13.146,14.541,16.637,17.799,16.906,16.665,17.724,18.414,18.343,16.274,14.617,14.355,13.982,12.542,11.076,8.3867,7.1174,6.5543,5.2008,4.7659,2.8892,-2.1264,-5.0054,-2.8528,0.71971,-3.845,-7.7255,-7.9447,-13.225,-22.272,-19.572,-12.43,-1.3045,-1.9689,-3.0586,-3.4439,-1.8968,-1.9916,-2.8049,-2.4979,-1.2029,0.10537,1.0123,0.27705,-0.089698,-0.38802,-0.4862,-1.1133,-1.8981,-2.0149,-1.2637,-0.092157,0.67915,0.35824,-0.40361,-0.80863,-0.61113,-0.73282,-0.64918,-0.82879,-1.0447,-0.60225,0.0081599,-0.034208,-0.70116,-1.304,-1.3826,-0.63278,0.17556,0.31332,-0.21365,-0.66245,-0.73797,-0.53438,-0.30198,-0.46811,-0.68899,-0.61896,-0.3397,0.053108,-0.062645,-0.88051,-1.0332,-0.42566,0.61214,0.92471,0.53679,-0.15464,-0.49838,-0.46777,-0.13186,0.0088484,-0.5775,-0.97286,-1.209,-1.1055,-1.5566,-2.3502,-3.1484,-2.9274,-1.9398,-0.70652,-0.3321,-1.0178,-1.8042,-1.2259,-0.83938,-0.11085,0.93209,1.0709,1.2405,1.5731,1.8334,2.2261,2.1239,2.5394,2.9513,3.7053,4.4799,4.6193,4.0533,4.0528,4.5476,4.874,5.0774,4.9901,4.8781,5.2983,5.7869,5.7169,5.2241,4.3979,3.7045,3.4039,1.9885,1.278,-1.3602,-2.7265,-3.4105,-2.6583,-1.2209,-1.4506,-3.3331,-10.263,-17.233,-7.3776,-1.8863,1.9486,0.30474,-1.6329,-3.1691,-4.8091,-2.6828,-1.9087,-1.6177,-2.0507,-2.3382,-2.2472,-2.0476,-1.1471,-0.59371,-0.1223,0.076463,-0.38959,-0.99486,-1.1836,-0.724,0.054816,0.41055,0.28536,-0.28056,-0.51271,-0.46013,-0.37909,-0.75929,-1.1085,-0.914,-0.20775,0.27285,0.25546,-0.27739,-0.94425,-1.0169,-0.4338,0.42901,0.68721,0.47217,0.1524,0.043581,0.10193,0.036601,-0.30363,-0.52961,-0.33456,0.21224,0.55713,0.20599,-0.54882,-1.0243,-0.8885,-0.22276,0.40747,0.49153,0.33119,0.23805,0.34499,0.40128,0.13749,-0.11206,0.010608,0.49222,1.1042,1.1331,0.62325,-0.0041018,-0.23134,0.18678,0.6294,0.80359,0.64061,0.44617,0.46638,0.55236,0.31425,-0.25914,-0.51581,-0.15837,0.41131,0.83793,0.64838,0.081252,-0.27404,-0.14979,0.29685,0.64911,0.74118,0.5546,0.54192,0.70884,0.72477,0.28841,-0.2491,-0.38743,0.034699,0.62265,0.82531,0.54105,0.075249,-0.054407,0.24262,0.75527,0.94218,0.90653,0.91456,1.0587,1.2163,0.97906,0.42038,-0.058689,-0.19449,0.22539,0.61185,0.56729,0.05348,-0.39822,-0.33926,0.077027,0.32854,0.28872,0.2704,0.34713,0.57247,0.71105,0.43006,-0.1068,-0.44089,-0.11687,0.46558,0.76393,0.50475,0.028269,-0.22175,-0.02492,0.27672,0.33618,0.1755,0.12347,0.40742,0.71805,0.76622,0.34418,-0.15048,-0.17069,0.2844,0.72918,0.74793,0.27733,-0.12708,-0.12094,0.11979,0.24908,0.12365,-0.060263,0.15445,0.57632,0.84414,0.65106,0.1241,-0.31278,-0.17395,0.27564,0.56687,0.36488,-0.012525,-0.19797,0.022726,0.35184,0.36562,0.11375,-0.027078,0.21657,0.62708,0.73566,0.35536,-0.22261,-0.39425,-0.10961,0.22209,0.24134,-0.11049,-0.40154,-0.37782,-0.069261,0.086751,-0.16241,-0.41254,-0.3225,0.11729,0.5428,0.56664,0.09907,-0.28844,-0.29817,0.037023,0.22968,0.019043,-0.37758,-0.5372,-0.33605,-0.089608,-0.16403,-0.48133,-0.6975,-0.45458,0.035441,0.35366,0.18183,-0.24215,-0.44645,-0.22218,0.047618,-0.072653,-0.45145,-0.705,-0.69637,-0.35953,-0.24224,-0.56401,-0.97328,-0.99649,-0.61705,-0.089937,0.035061,-0.23774,-0.55917,-0.67744,-0.38961,-0.29352,-0.5445,-0.94962,-1.114,-0.87858,-0.59345,-0.6443,-1.1282,-1.4853,-1.3133,-0.78143,-0.34431,-0.30493,-0.58684,-0.72903,-0.5634,-0.40927,-0.56014,-1.076,-1.4309,-1.3803,-0.98975,-0.78882,-1.1019,-1.6305,-1.8033,-1.5517,-1.0713,-0.90034,-1.0877,-1.388,-1.7802,-2.0327,-3.4312,-4.6912,-7.7103,-9.4346,-11.509,-12.105,-13.225,-14.537,-15.268,-13.629,-12.318,-9.2275,-7.2239,-5.2414,-1.2613,0.71454,0.91358,4.9996,6.9282,6.396,10.076,14.972,16.527,17.616,20.062,21.415,23.224,24.394,24.202,23.376,22.537,21.648,20.24,19.27,16.091,15.331,10.706,7.1634,5.0576,5.1103,-3.1423,-2.8082,-2.9761,-5.1394,-21.829,-31.026,-33.987,-18.39,-9.2563,-4.8257,-8.7198,-11.858,-10.846,-8.9723,-6.2231,-5.2989,-5.3455,-5.9366,-6.9861,-7.3134,-7.5222,-7.8636,-8.7201,-9.2534,-9.2967,-9.0649,-8.9417,-8.6889,-9.0852,-9.1481,-7.3279,-6.2725,-4.6862,-3.9933,-2.6698,-1.5719,-1.3257,2.5809,4.568,5.4003,6.3754,7.7318,9.8478,11.022,10.88,10.598,10.766,12.199,14.082,14.608,13.959,14.054,14.158,14.825,15.328,15.223,14.984,14.901,15.528,15.698,14.008,12.094,10.519,9.7884,7.9585,7.286,6.9623,2.2372,0.51916,-1.461,-2.7378,2.8876,2.7205,3.033,-19.05,-29.505,-35.718,-23.465,-7.7488,-4.2391,-7.7747,-11.35,-13.523,-13.396,-12.764,-11.264,-7.6152,-6.1907,-6.3545,-6.6239,-6.047,-4.8179,-4.3049,-6.0943,-8.1458,-9.7581,-10.029,-9.3173,-8.9826,-9.4918,-9.8924,-8.5477,-7.5376,-6.4836,-5.9872,-5.8717,-4.3437,-2.3562,0.15228,1.8488,3.6809,2.8469,2.5685,4.2555,5.7345,6.8246,8.0372,8.0635,7.714,9.2909,10.356,10.9,11.563,12.696,13.806,14.826,14.814,13.435,11.887,11.003,11.316,11.841,11.699,10.369,8.3026,7.2809,5.9594,5.3415,4.0939,2.3689,1.639,3.1088,-4.5924,-8.3465,-9.7573,-13.644,-19.282,-20.788,-21.086,-15.891,-13.069,-9.8121,-11.463,-12.311,-12.894,-12.967,-10.483,-7.486,-5.9681,-6.351,-7.5999,-8.956,-9.3926,-9.2904,-9.6194,-9.2339,-9.8495,-10.144,-9.6409,-7.898,-6.9567,-6.3444,-5.0038,-2.4007,0.41606,3.2865,6.0534,5.7437,4.2487,6.9858,10.334,11.109,14.151,15.014,15.929,18.121,18.779,19.341,19.261,19.12,19.913,21.293,21.699,21.066,19.435,17.749,15.561,15.018,14.279,10.946,8.8103,8.4767,3.8373,-0.33627,-1.8208,-2.1352,-4.0761,-15.257,-30.244,-30.983,-16.805,-18.348,-3.7347,-4.1807,-7.5054,-8.7753,-7.083,-4.8968,-0.86201,0.017377,-0.98594,-1.8698,-2.1369,-1.5048,-0.29583,-0.2344,-0.80568,-1.8017,-2.7993,-2.8825,-2.0803,-0.78633,-0.54212,-1.0349,-1.5982,-1.46,-1.1455,-1.3583,-2.28,-2.4318,-1.3862,0.28737,1.1491,0.41436,-1.0249,-2.1548,-2.1197,-1.2881,-0.61923,-0.77997,-1.4277,-1.7076,-1.5943,-1.5519,-2,-2.4638,-2.2321,-1.1323,0.02205,0.5997,-0.20616,-1.7405,-2.6387,-2.5288,-2.1975,-2.0928,-2.3113,2.2892,0.15343,-4.1233,-26.732,-39.702,-33.377,-21.26,-10.688,-1.8394,-13.52,-17.895,-18.061,-15.143,-11.911,-9.4315,-9.4965,-11.696,-12.448,-12.637,-12.382,-11.814,-11.109,-10.594,-9.9812,-9.826,-7.3873,-5.4146,-3.3328,-0.90414,-0.5846,0.36365,3.161,4.9168,8.1083,9.5212,12.516,13.146,14.541,16.637,17.799,16.906,16.665,17.724,18.414,18.343,16.274,14.617,14.355,13.982,12.542,11.076,8.3867,7.1174,6.5543,5.2008,4.7659,2.8892,-2.1264,-5.0054,-2.8528,0.71971,-3.845,-7.7255,-7.9447,-13.225,-22.272,-19.572,-12.43,-1.3045,-1.9689,-3.0586,-3.4439,-1.8968,-1.9916,-2.8049,-2.4979,-1.2029,0.10537,1.0123,0.27705,-0.089698,-0.38802,-0.4862,-1.1133,-1.8981,-2.0149,-1.2637,-0.092157,0.67915,0.35824,-0.40361,-0.80863,-0.61113,-0.73282,-0.64918,-0.82879,-1.0447,-0.60225,0.0081599,-0.034208,-0.70116,-1.304,-1.3826,-0.63278,0.17556,0.31332,-0.21365,-0.66245,-0.73797,-0.53438,-0.30198,-0.46811,-0.68899,-0.61896,-0.3397,0.053108,-0.062645,-0.88051,-1.0332,-0.42566,0.61214,0.92471,0.53679,-0.15464,-0.49838,-0.46777,-0.13186,0.0088484,-0.5775,-0.97286,-1.209,-1.1055,-1.5566,-2.3502,-3.1484,-2.9274,-1.9398,-0.70652,-0.3321,-1.0178,-1.8042,-1.2259,-0.83938,-0.11085,0.93209,1.0709,1.2405,1.5731,1.8334,2.2261,2.1239,2.5394,2.9513,3.7053,4.4799,4.6193,4.0533,4.0528,4.5476,4.874,5.0774,4.9901,4.8781,5.2983,5.7869,5.7169,5.2241,4.3979,3.7045,3.4039,1.9885,1.278,-1.3602,-2.7265,-3.4105,-2.6583,-1.2209,-1.4506,-3.3331,-10.263,-17.233,-7.3776,-1.8863,1.9486,0.30474,-1.6329,-3.1691,-4.8091,-2.6828,-1.9087,-1.6177,-2.0507,-2.3382,-2.2472,-2.0476,-1.1471,-0.59371,-0.1223,0.076463,-0.38959,-0.99486,-1.1836,-0.724,0.054816,0.41055,0.28536,-0.28056,-0.51271,-0.46013,-0.37909,-0.75929,-1.1085,-0.914,-0.20775,0.27285,0.25546,-0.27739,-0.94425,-1.0169,-0.4338,0.42901,0.68721,0.47217,0.1524,0.043581,0.10193,0.036601,-0.30363,-0.52961,-0.33456,0.21224,0.55713,0.20599,-0.54882,-1.0243,-0.8885,-0.22276,0.40747,0.49153,0.33119,0.23805,0.34499,0.40128,0.13749,-0.11206,0.010608,0.49222,1.1042,1.1331,0.62325,-0.0041018,-0.23134,0.18678,0.6294,0.80359,0.64061,0.44617,0.46638,0.55236,0.31425,-0.25914,-0.51581,-0.15837,0.41131,0.83793,0.64838,0.081252,-0.27404,-0.14979,0.29685,0.64911,0.74118,0.5546,0.54192,0.70884,0.72477,0.28841,-0.2491,-0.38743,0.034699,0.62265,0.82531,0.54105,0.075249,-0.054407,0.24262,0.75527,0.94218,0.90653,0.91456,1.0587,1.2163,0.97906,0.42038,-0.058689,-0.19449,0.22539,0.61185,0.56729,0.05348,-0.39822,-0.33926,0.077027,0.32854,0.28872,0.2704,0.34713,0.57247,0.71105,0.43006,-0.1068,-0.44089,-0.11687,0.46558,0.76393,0.50475,0.028269,-0.22175,-0.02492,0.27672,0.33618,0.1755,0.12347,0.40742,0.71805,0.76622,0.34418,-0.15048,-0.17069,0.2844,0.72918,0.74793,0.27733,-0.12708,-0.12094,0.11979,0.24908,0.12365,-0.060263,0.15445,0.57632,0.84414,0.65106,0.1241,-0.31278,-0.17395,0.27564,0.56687,0.36488,-0.012525,-0.19797,0.022726,0.35184,0.36562,0.11375,-0.027078,0.21657,0.62708,0.73566,0.35536,-0.22261,-0.39425,-0.10961,0.22209,0.24134,-0.11049,-0.40154,-0.37782,-0.069261,0.086751,-0.16241,-0.41254,-0.3225,0.11729,0.5428,0.56664,0.09907,-0.28844,-0.29817,0.037023,0.22968,0.019043,-0.37758,-0.5372,-0.33605,-0.089608,-0.16403,-0.48133,-0.6975,-0.45458,0.035441,0.35366,0.18183,-0.24215,-0.44645,-0.22218,0.047618,-0.072653,-0.45145,-0.705,-0.69637,-0.35953,-0.24224,-0.56401,-0.97328,-0.99649,-0.61705,-0.089937,0.035061,-0.23774,-0.55917,-0.67744,-0.38961,-0.29352,-0.5445,-0.94962,-1.114,-0.87858,-0.59345,-0.6443,-1.1282,-1.4853,-1.3133,-0.78143,-0.34431,-0.30493,-0.58684,-0.72903,-0.5634,-0.40927,-0.56014,-1.076,-1.4309,-1.3803,-0.98975,-0.78882,-1.1019,-1.6305,-1.8033,-1.5517,-1.0713,-0.90034,-1.0877,-1.388,-1.7802,-2.0327,-3.4312,-4.6912,-7.7103,-9.4346,-11.509,-12.105,-13.225,-14.537,-15.268,-13.629,-12.318,-9.2275,-7.2239,-5.2414,-1.2613,0.71454,0.91358,4.9996,6.9282,6.396,10.076,14.972,16.527,17.616,20.062,21.415,23.224,24.394,24.202,23.376,22.537,21.648,20.24,19.27,16.091,15.331,10.706,7.1634,5.0576,5.1103,-3.1423,-2.8082,-2.9761,-5.1394,-21.829,-31.026,-33.987,-18.39,-9.2563,-4.8257,-8.7198,-11.858,-10.846,-8.9723,-6.2231,-5.2989,-5.3455,-5.9366,-6.9861,-7.3134,-7.5222,-7.8636,-8.7201,-9.2534,-9.2967,-9.0649,-8.9417,-8.6889,-9.0852,-9.1481,-7.3279,-6.2725,-4.6862,-3.9933,-2.6698,-1.5719,-1.3257,2.5809,4.568,5.4003,6.3754,7.7318,9.8478,11.022,10.88,10.598,10.766,12.199,14.082,14.608,13.959,14.054,14.158,14.825,15.328,15.223,14.984,14.901,15.528,15.698,14.008,12.094,10.519,9.7884,7.9585,7.286,6.9623,2.2372,0.51916,-1.461,-2.7378,2.8876,2.7205,3.033,-19.05,-29.505,-35.718,-23.465,-7.7488,-4.2391,-7.7747,-11.35,-13.523,-13.396,-12.764,-11.264,-7.6152,-6.1907,-6.3545,-6.6239,-6.047,-4.8179,-4.3049,-6.0943,-8.1458,-9.7581,-10.029,-9.3173,-8.9826,-9.4918,-9.8924,-8.5477,-7.5376,-6.4836,-5.9872,-5.8717,-4.3437,-2.3562,0.15228,1.8488,3.6809,2.8469,2.5685,4.2555,5.7345,6.8246,8.0372,8.0635,7.714,9.2909,10.356,10.9,11.563,12.696,13.806,14.826,14.814,13.435,11.887,11.003,11.316,11.841,11.699,10.369,8.3026,7.2809,5.9594,5.3415,4.0939,2.3689,1.639,3.1088,-4.5924,-8.3465,-9.7573,-13.644,-19.282,-20.788,-21.086,-15.891,-13.069,-9.8121,-11.463,-12.311,-12.894,-12.967,-10.483,-7.486,-5.9681,-6.351,-7.5999,-8.956,-9.3926,-9.2904,-9.6194,-9.2339,-9.8495,-10.144,-9.6409,-7.898,-6.9567,-6.3444,-5.0038,-2.4007,0.41606,3.2865,6.0534,5.7437,4.2487,6.9858,10.334,11.109,14.151,15.014,15.929,18.121,18.779,19.341,19.261,19.12,19.913,21.293,21.699,21.066,19.435,17.749,15.561,15.018,14.279,10.946,8.8103,8.4767,3.8373,-0.33627,-1.8208,-2.1352,-4.0761,-15.257,-30.244,-30.983,-16.805,-18.348,-3.7347,-4.1807,-7.5054,-8.7753,-7.083,-4.8968,-0.86201,0.017377,-0.98594,-1.8698,-2.1369,-1.5048,-0.29583,-0.2344,-0.80568,-1.8017,-2.7993,-2.8825,-2.0803,-0.78633,-0.54212,-1.0349,-1.5982,-1.46,-1.1455,-1.3583,-2.28,-2.4318,-1.3862,0.28737,1.1491,0.41436,-1.0249,-2.1548,-2.1197,-1.2881,-0.61923,-0.77997,-1.4277,-1.7076,-1.5943,-1.5519,-2,-2.4638,-2.2321,-1.1323,0.02205,0.5997,-0.20616,-1.7405,-2.6387,-2.5288,-2.1975,-2.0928,-2.3113,-2.6704,-2.5873,-2.4073,-2.3876,-2.4267,-2.4784,-1.7093,0.080838,1.5539,2.2882,1.6136,1.4959,1.5019,2.0948,2.8341,2.9494,2.8978,3.17,3.564,3.9156,3.8193,3.5135,3.6495,4.6751,6.112,7.4108,7.2247,5.9035,4.831,4.505,3.9472,3.554,1.4842,1.0929,-3.1519,-5.705,-7.9039,-4.3965,-0.53965,-0.068237,-2.5297,-5.0494,-3.3411,-2.4409,-0.59828,-1.3094,-2.412,-2.1517,-1.5495,-1.3873,-1.1175,-0.86335,-0.50887,-0.57354,-0.82834,-0.99601,-0.59919,0.35945,1.1341,1.073,0.35122,-0.32702,-0.31658,0.002632,0.33873,0.32304,-0.055012,-0.073326,0.21949,0.45202,0.12893,-0.43106,-0.52625,-0.016417,0.86176,1.3244,0.94268,0.034766,-0.53873,-0.57787,-0.26855,-0.08742,-0.14829,-0.39577,-0.36359,-0.22758,-0.22512,-0.53842,-0.90169,-0.81502,-0.26232,0.43479,0.53512,0.13682,-0.44676,-0.65103,-0.40241,-0.0077336,0.031325,-0.12855,-0.27236,-0.1902,-0.042595,-0.094186,-0.47423,-0.75189,-0.65187,-0.13004,0.30217,0.24436,-0.28745,-0.70515,-0.679,-0.34629,-0.11264,-0.072278,-0.055684,-0.0082579,0.25702,0.51686,0.60143,0.33236,0.18133,0.35626,0.64634,0.86912,0.7912,0.47561,0.30376,0.25512,0.22603,-0.045429,-0.41453,-0.65676,-0.63139,-0.44355,-0.24365,-0.31231,-0.32001,-0.041294,0.23607,0.40372,0.34823,0.075576,-0.029961,0.020994,-0.071359,-0.17194,-0.39811,-0.48613,-0.1604,0.2123,0.46758,0.47425,0.29222,0.1364,0.39521,0.73296,0.76316,0.73861,0.68737,0.71322,0.68877,0.52773,0.12118,-0.13338,-0.25634,-0.067564,0.20404,0.38531,0.34419,0.16865,-0.016296,-0.16863,-0.29306,-0.4422,-0.34883,-0.11972,0.12931,0.13846,0.035376,-0.24944,-0.37057,-0.11843,0.22654,0.61438,0.65213,0.60802,0.47772,0.27705,3.085e-05,-0.29657,-0.39577,-0.16084,0.30588,0.55473,0.44873,0.095327,-0.26027,-0.3383,-0.031519,0.30034,0.46952,0.57321,0.55786,0.56,0.30991,-0.074692,-0.42804,-0.43528,-0.0473,0.51112,0.70312,0.4602,0.013447,-0.24827,-0.13341,0.30186,0.59704,0.77503,0.82994,0.72873,0.53491,0.14762,-0.39256,-0.72562,-0.43077,0.21217,0.74,0.80588,0.33825,-0.23858,-0.37254,-0.070813,0.39442,0.6607,0.63282,0.63319,0.68108,0.42465,-0.11487,-0.6518,-0.77362,-0.27454,0.53986,0.90487,0.61786,-0.10738,-0.52817,-0.49246,-0.082141,0.31632,0.62289,0.65391,0.63157,0.55643,0.15161,-0.5052,-0.92316,-0.69281,0.13598,0.88508,1.0744,0.46016,-0.31891,-0.68614,-0.47744,0.021913,0.3518,0.51789,0.51652,0.57071,0.39016,-0.21335,-0.86425,-1.078,-0.56509,0.35591,1.0058,0.78763,-0.029734,-0.71783,-0.90221,-0.55383,-0.10468,0.10211,0.15609,0.20894,0.21792,-0.14625,-0.79803,-1.4018,-1.3481,-0.56754,0.46298,0.87969,0.35124,-0.61621,-1.2704,-1.2172,-0.82454,-0.47231,-0.3013,-0.17594,-0.045239,-0.1326,-0.58034,-1.3433,-1.7715,-1.359,-0.28788,0.66382,0.71281,-0.12212,-1.1589,-1.6297,-1.4403,-1.0658,-0.71616,-0.59501,-0.42833,-0.33432,-0.59664,-1.2045,-1.8063,-1.9129,-1.192,-0.16124,0.40529,-0.12723,-1.2881,-2.7501,-3.6201,-4.1463,-6.4089,-7.5172,-9.8724,-10.74,-12.299,-13.242,-14.309,-14.624,-13.891,-12.338,-9.0206,-4.2292,-2.3625,-3.5008,1.2571,2.5429,5.2541,6.9914,10.725,12.846,15.238,16.548,16.068,18.834,19.38,20.554,21.955,21.887,20.865,19.089,17.217,16.287,15.896,14.668,13.691,11.147,8.234,6.8363,5.2955,2.0658,2.473,5.6972,1.6395,-24.899,-36.13,-36.701,-17.855,-9.9829,-4.6111,-8.2733,-15.01,-14.473,-12.099,-6.739,-5.5266,-5.4376,-6.4059,-7.097,-6.4141,-5.0791,-4.6009,-4.8321,-6.1646,-7.4478,-8.6566,-9.0414,-8.9496,-8.4535,-8.1036,-8.097,-7.9478,-7.6187,-6.5549,-5.86,-3.3433,-1.2556,1.7374,2.944,2.8892,3.5584,3.5182,4.6542,5.3064,6.6712,6.9373,9.6307,9.9326,10.006,10.939,11.399,12.829,13.878,15.312,16.228,16.418,15.741,14.288,12.604,11.578,10.729,10.933,11.21,11.307,11.02,10.094,9.7454,8.1937,8.008,7.5806,7.9179,7.8583,6.6606,3.9853,1.1746,0.4323,-0.73778,0.056841,-2.779,-9.5241,-25.767,-25.874,-19.228,-8.7963,-9.1482,-12.151,-16.219,-14.235,-11.625,-7.6559,-6.8374,-7.4469,-7.9554,-8.093,-7.9737,-7.8147,-7.7612,-8.1697,-8.4863,-8.6429,-8.6437,-8.1984,-7.0811,-6.6957,-6.3382,-6.7549,-7.9973,-8.9259,-9.4981,-9.5872,-9.0321,-8.5062,-6.9902,-6.029,-5.2699,-3.249,-1.5573,-0.27604,1.5057,3.7657,6.3257,7.1694,7.3322,7.9479,8.1784,7.5499,10.816,11.823,12.353,12.888,13.6,13.511,13.422,13.22,13.818,14.789,15.83,15.753,15.105,14.095,12.094,10.441,8.3315,6.9902,4.6303,3.5359,2.7103,2.0213,1.101,2.1479,3.0373,-0.68108,-6.1825,-14.698,-29.776,-20.725,-13.462,-9.8423,-13.669,-16.812,-15.565,-14.484,-14.219,-12.618,-11.828,-11.298,-12.133,-12.835,-12.018,-11.106,-10.209,-9.8616,-9.4863,-9.9058,-10.224,-9.6846,-9.0725,-8.5175,-8.4496,-5.969,-4.7969,-3.827,-2.2435,-1.3527,1.9188,6.1322,8.6338,10.135,12.386,12.86,13.687,14.54,16.663,17.339,17.511,18.1,18.535,18.737,18.51,17.516,17.571,18.545,19.885,20.374,19.763,17.929,17.062,15.553,14.145,11.674,9.9844,7.4305,7.5725,9.5318,14.15,10.819,-3.5864,-2.6959,-35.255,-32.772,-22.431,-6.8438,-7.741,-16.943,-17.059,-15.521,-12.374,-8.7696,-2.495,-0.55854,-0.80529,-2.3206,-3.9635,-3.4555,-2.0901,-1.0247,-0.69694,-1.2788,-3.0226,-3.3356,-3.1117,-2.9069,-3.2632,-3.6091,-3.4699,-3.1287,-2.3697,-2.329,-2.9753,-3.5766,-3.1399,-1.7264,-0.17248,0.34272,-0.053526,-0.84791,-1.2463,-1.0449,-1.1368,-1.8218,-2.5469,-2.8955,-2.5106,-2.382,-2.7048,-3.2597,-3.3758,-2.7766,-1.831,-1.5326,-2.0338,-3.5237,-4.2894,-4.2341,-19.282,-20.788,-21.086,-15.891,-13.069,-9.8121,-11.463,-12.311,-12.894,-12.967,-10.483,-7.486,-5.9681,-6.351,-7.5999,-8.956,-9.3926,-9.2904,-9.6194,-9.2339,-9.8495,-10.144,-9.6409,-7.898,-6.9567,-6.3444,-5.0038,-2.4007,0.41606,3.2865,6.0534,5.7437,4.2487,6.9858,10.334,11.109,14.151,15.014,15.929,18.121,18.779,19.341,19.261,19.12,19.913,21.293,21.699,21.066,19.435,17.749,15.561,15.018,14.279,10.946,8.8103,8.4767,3.8373,-0.33627,-1.8208,-2.1352,-4.0761,-15.257,-30.244,-30.983,-16.805,-18.348,-3.7347,-4.1807,-7.5054,-8.7753,-7.083,-4.8968,-0.86201,0.017377,-0.98594,-1.8698,-2.1369,-1.5048,-0.29583,-0.2344,-0.80568,-1.8017,-2.7993,-2.8825,-2.0803,-0.78633,-0.54212,-1.0349,-1.5982,-1.46,-1.1455,-1.3583,-2.28,-2.4318,-1.3862,0.28737,1.1491,0.41436,-1.0249,-2.1548,-2.1197,-1.2881,-0.61923,-0.77997,-1.4277,-1.7076,-1.5943,-1.5519,-2,-2.4638,-2.2321,-1.1323,0.02205,0.5997,-0.20616,-1.7405,-2.6387,-2.5288,-2.1975,-2.0928,-2.3113,-2.6704,-2.5873,-2.4073,-2.3876,-2.4267,-2.4784,-1.7093,0.080838,1.5539,2.2882,1.6136,1.4959,1.5019,2.0948,2.8341,2.9494,2.8978,3.17,3.564,3.9156,3.8193,3.5135,3.6495,4.6751,6.112,7.4108,7.2247,5.9035,4.831,4.505,3.9472,3.554,1.4842,1.0929,-3.1519,-5.705,-7.9039,-4.3965,-0.53965,-0.068237,-2.5297,-5.0494,-3.3411,-2.4409,-0.59828,-1.3094,-2.412,-2.1517,-1.5495,-1.3873,-1.1175,-0.86335,-0.50887,-0.57354,-0.82834,-0.99601,-0.59919,0.35945,1.1341,1.073,0.35122,-0.32702,-0.31658,0.002632,0.33873,0.32304,-0.055012,-0.073326,0.21949,0.45202,0.12893,-0.43106,-0.52625,-0.016417,0.86176,1.3244,0.94268,0.034766,-0.53873,-0.57787,-0.26855,-0.08742,-0.14829,-0.39577,-0.36359,-0.22758,-0.22512,-0.53842,-0.90169,-0.81502,-0.26232,0.43479,0.53512,0.13682,-0.44676,-0.65103,-0.40241,-0.0077336,0.031325,-0.12855,-0.27236,-0.1902,-0.042595,-0.094186,-0.47423,-0.75189,-0.65187,-0.13004,0.30217,0.24436,-0.28745,-0.70515,-0.679,-0.34629,-0.11264,-0.072278,-0.055684,-0.0082579,0.25702,0.51686,0.60143,0.33236,0.18133,0.35626,0.64634,0.86912,0.7912,0.47561,0.30376,0.25512,0.22603,-0.045429,-0.41453,-0.65676,-0.63139,-0.44355,-0.24365,-0.31231,-0.32001,-0.041294,0.23607,0.40372,0.34823,0.075576,-0.029961,0.020994,-0.071359,-0.17194,-0.39811,-0.48613,-0.1604,0.2123,0.46758,0.47425,0.29222,0.1364,0.39521,0.73296,0.76316,0.73861,0.68737,0.71322,0.68877,0.52773,0.12118,-0.13338,-0.25634,-0.067564,0.20404,0.38531,0.34419,0.16865,-0.016296,-0.16863,-0.29306,-0.4422,-0.34883,-0.11972,0.12931,0.13846,0.035376,-0.24944,-0.37057,-0.11843,0.22654,0.61438,0.65213,0.60802,0.47772,0.27705,3.085e-05,-0.29657,-0.39577,-0.16084,0.30588,0.55473,0.44873,0.095327,-0.26027,-0.3383,-0.031519,0.30034,0.46952,0.57321,0.55786,0.56,0.30991,-0.074692,-0.42804,-0.43528,-0.0473,0.51112,0.70312,0.4602,0.013447,-0.24827,-0.13341,0.30186,0.59704,0.77503,0.82994,0.72873,0.53491,0.14762,-0.39256,-0.72562,-0.43077,0.21217,0.74,0.80588,0.33825,-0.23858,-0.37254,-0.070813,0.39442,0.6607,0.63282,0.63319,0.68108,0.42465,-0.11487,-0.6518,-0.77362,-0.27454,0.53986,0.90487,0.61786,-0.10738,-0.52817,-0.49246,-0.082141,0.31632,0.62289,0.65391,0.63157,0.55643,0.15161,-0.5052,-0.92316,-0.69281,0.13598,0.88508,1.0744,0.46016,-0.31891,-0.68614,-0.47744,0.021913,0.3518,0.51789,0.51652,0.57071,0.39016,-0.21335,-0.86425,-1.078,-0.56509,0.35591,1.0058,0.78763,-0.029734,-0.71783,-0.90221,-0.55383,-0.10468,0.10211,0.15609,0.20894,0.21792,-0.14625,-0.79803,-1.4018,-1.3481,-0.56754,0.46298,0.87969,0.35124,-0.61621,-1.2704,-1.2172,-0.82454,-0.47231,-0.3013,-0.17594,-0.045239,-0.1326,-0.58034,-1.3433,-1.7715,-1.359,-0.28788,0.66382,0.71281,-0.12212,-1.1589,-1.6297,-1.4403,-1.0658,-0.71616,-0.59501,-0.42833,-0.33432,-0.59664,-1.2045,-1.8063,-1.9129,-1.192,-0.16124,0.40529,-0.12723,-1.2881,-2.7501,-3.6201,-4.1463,-6.4089,-7.5172,-9.8724,-10.74,-12.299,-13.242,-14.309,-14.624,-13.891,-12.338,-9.0206,-4.2292,-2.3625,-3.5008,1.2571,2.5429,5.2541,6.9914,10.725,12.846,15.238,16.548,16.068,18.834,19.38,20.554,21.955,21.887,20.865,19.089,17.217,16.287,15.896,14.668,13.691,11.147,8.234,6.8363,5.2955,2.0658,2.473,5.6972,1.6395,-24.899,-36.13,-36.701,-17.855,-9.9829,-4.6111,-8.2733,-15.01,-14.473,-12.099,-6.739,-5.5266,-5.4376,-6.4059,-7.097,-6.4141,-5.0791,-4.6009,-4.8321,-6.1646,-7.4478,-8.6566,-9.0414,-8.9496,-8.4535,-8.1036,-8.097,-7.9478,-7.6187,-6.5549,-5.86,-3.3433,-1.2556,1.7374,2.944,2.8892,3.5584,3.5182,4.6542,5.3064,6.6712,6.9373,9.6307,9.9326,10.006,10.939,11.399,12.829,13.878,15.312,16.228,16.418,15.741,14.288,12.604,11.578,10.729,10.933,11.21,11.307,11.02,10.094,9.7454,8.1937,8.008,7.5806,7.9179,7.8583,6.6606,3.9853,1.1746,0.4323,-0.73778,0.056841,-2.779,-9.5241,-25.767,-25.874,-19.228,-8.7963,-9.1482,-12.151,-16.219,-14.235,-11.625,-7.6559,-6.8374,-7.4469,-7.9554,-8.093,-7.9737,-7.8147,-7.7612,-8.1697,-8.4863,-8.6429,-8.6437,-8.1984,-7.0811,-6.6957,-6.3382,-6.7549,-7.9973,-8.9259,-9.4981,-9.5872,-9.0321,-8.5062,-6.9902,-6.029,-5.2699,-3.249,-1.5573,-0.27604,1.5057,3.7657,6.3257,7.1694,7.3322,7.9479,8.1784,7.5499,10.816,11.823,12.353,12.888,13.6,13.511,13.422,13.22,13.818,14.789,15.83,15.753,15.105,14.095,12.094,10.441,8.3315,6.9902,4.6303,3.5359,2.7103,2.0213,1.101,2.1479,3.0373,-0.68108,-6.1825,-14.698,-29.776,-20.725,-13.462,-9.8423,-13.669,-16.812,-15.565,-14.484,-14.219,-12.618,-11.828,-11.298,-12.133,-12.835,-12.018,-11.106,-10.209,-9.8616,-9.4863,-9.9058,-10.224,-9.6846,-9.0725,-8.5175,-8.4496,-5.969,-4.7969,-3.827,-2.2435,-1.3527,1.9188,6.1322,8.6338,10.135,12.386,12.86,13.687,14.54,16.663,17.339,17.511,18.1,18.535,18.737,18.51,17.516,17.571,18.545,19.885,20.374,19.763,17.929,17.062,15.553,14.145,11.674,9.9844,7.4305,7.5725,9.5318,14.15,10.819,-3.5864,-2.6959,-35.255,-32.772,-22.431,-6.8438,-7.741,-16.943,-17.059,-15.521,-12.374,-8.7696,-2.495,-0.55854,-0.80529,-2.3206,-3.9635,-3.4555,-2.0901,-1.0247,-0.69694,-1.2788,-3.0226,-3.3356,-3.1117,-2.9069,-3.2632,-3.6091,-3.4699,-3.1287,-2.3697,-2.329,-2.9753,-3.5766,-3.1399,-1.7264,-0.17248,0.34272,-0.053526,-0.84791,-1.2463,-1.0449,-1.1368,-1.8218,-2.5469,-2.8955,-2.5106,-2.382,-2.7048,-3.2597,-3.3758,-2.7766,-1.831,-1.5326,-2.0338,-3.5237,-4.2894,-4.2341,-3.0242,-2.6064,-2.4636,-1.4508,0.055207,0.95887,1.5201,1.9612,1.9151,2.6003,4.5193,6.5304,7.5719,7.6869,6.9919,6.4452,6.3962,6.0678,4.9527,3.7048,2.546,1.4021,0.88789,-0.84707,-1.9746,-2.7159,-2.5526,-1.2663,-0.4282,-0.43608,-1.3384,-2.3869,-2.4673,-1.621,-1.1914,-0.86259,-1.1168,-1.0867,-0.98348,-0.90386,-2.4138,-3.0856,-2.5535,-1.3133,0.19581,0.82568,0.28138,-0.71321,-1.2196,-0.77494,0.91166,1.577,0.93228,-0.15711,-0.36444,-0.22012,0.13051,-0.12261,-0.5972,-0.40549,0.51447,1.5954,1.9378,1.4688,0.62589,0.26038,0.59834,0.96941,0.81777,0.28389,-0.15237,-0.21323,-0.19193,-0.2739,-0.52265,-0.50818,0.041457,1.0227,1.6766,1.5068,0.89513,0.28769,0.2232,0.55365,0.88223,0.70263,0.17441,-0.2187,-0.28855,-0.21754,-0.289,-0.33398,-0.018858,0.61912,1.2866,1.5167,1.1411,0.5755,0.2377,0.37898,0.69268,0.84515,0.60243,0.14954,-0.18441,-0.34181,-0.42831,-0.52477,-0.42461,0.017177,0.56745,1.01,0.89709,0.42516,-0.044794,-0.10723,0.31089,0.62302,0.6866,0.50168,0.1003,-0.13757,-0.2878,-0.51561,-0.51939,-0.26679,0.19561,0.63666,0.82771,0.51663,0.019077,-0.17115,-0.15813,0.10657,0.43037,0.44187,0.084135,-0.21899,-0.50345,-0.58275,-0.53167,-0.27659,0.030543,0.42162,0.62964,0.41716,-0.029544,-0.4733,-0.5728,-0.34005,-0.050732,0.17791,0.099493,-0.12695,-0.43404,-0.6667,-0.73692,-0.52463,-0.20724,0.20623,0.48092,0.27592,-0.15372,-0.44413,-0.62893,-0.61112,-0.38357,-0.06579,0.17969,0.11743,-0.11607,-0.58155,-0.96525,-0.91049,-0.49209,0.023497,0.37391,0.29315,-0.12065,-0.52047,-0.69912,-0.74669,-0.58442,-0.34499,-0.12987,0.091457,0.14976,-0.098072,-0.38146,-0.55208,-0.29699,0.20521,0.65685,0.70325,0.32645,-0.26615,-0.53631,-0.60188,-0.53249,-0.42235,-0.26779,-0.0042931,0.17349,0.12547,-0.28682,-0.71454,-0.73725,-0.23423,0.55697,0.95573,0.7314,0.11189,