-941.79,-360.54,-4457.9,-11874,-17279,-19115,-14078,-6192,2008.2,8309.7,9423.2,6419.6,1114.4,-1258.8,-1578.1,-5358.5,-8157.1,-6119,-2358.3,278.12,3017.7,4289.2,3539.1,2519.3,-585.06,-3173.3,-1223.4,-150.42,-1656.6,-1903.4,705.43,1843.7,-483.5,-672.98,713.21,2196.1,3229.9,3989,2174.9,46.264,-385.36,-1748.7,-1840.1,-2236.9,-3255.5,-7295.7,-9808.1,-8554.6,-8421,-8130.2,-6964.9,-6663.7,-9524.5,-10509,-6429,-2937.6,-1888.2,-4128.3,-4379.4,664.87,2584.3,1356.8,3482.9,7413.5,7793.5,919.06,-5248.7,-7265,-6088.2,-2635.9,3074.2,7587.3,10535,11213,6163.6,-471.81,-4650.7,-6747.6,-6290.1,-3656.9,-420.98,-1540.2,-5877.5,-7802.6,-4465.4,-2025.6,-364.32,3600.9,3289.4,1729.3,1203.5,708.4,1585.5,90.555,-3279.4,-4766,-2632.6,-646.17,-1374.7,34.091,2762.2,2555.5,-1164.1,-2014.4,107.86,326.22,894.05,1341.8,493.23,-368.68,-2009.2,-5113.4,-7970.9,-6782.1,-7673.9,-12349,-13072,-13602,-15885,-19187,-22053,-19434,-9538.3,1807.5,4326.1,2522.9,3782.1,2882.3,1023.5,1631.5,3950.8,6006.4,8423.4,9837,8890.7,5181.8,3246.2,3563.3,4949.9,5489.6,3425.5,-511.47,-2806.6,-3324.4,-4050.9,-5136.3,-3962.2,-1771.1,-2974.9,-3918.3,-3015.9,-1646.9,-1862,-1363,-273.48,788.2,3356.8,2557.9,-182.73,-515.39,-1130.6,-3228.8,-3149.9,846.73,1701.1,-3590.3,-8504.8,-12770,-19894,-30851,-34196,-31738,-23541,-9897.4,5434.2,21114,28070,22708,14226,9246.6,6927.9,2368.6,907.44,7346.9,13626,15101,13178,10649,8054.2,7121.5,5961.8,2657.7,1848.3,868.7,-1583.2,-3404.7,-2069.2,-1095.7,-3802.5,-3931.7,-1617.1,-1558.8,-3182.9,-1604.6,2086.3,3973.7,3757.2,1389.2,311.61,300.57,-898.6,-2515.1,-1633.1,1479.1,1026.4,-3174.7,-5993.8,-6011,-5609.6,-6037,-3563,-3834.7,-12787,-27615,-39137,-43622,-38194,-25181,-8388.4,7613.3,15328,11388,8848.3,11571,13596,12029,12127,13423,12174,9839.2,7213.6,4550,3372.1,2089.1,332.75,-11.387,1804.1,1512.3,-1209.1,-2304.3,-1599.5,-1714.7,-2148.9,871.96,3039.6,1707.6,294.6,-517.41,575.66,906.8,-1352.9,-3543.2,-3619.1,-2782.4,-4773.5,-7079,-4974.8,-1666.7,-1503.5,-2655.9,-3627.1,-6871,-9232.9,-9571.7,-10814,-12327,-10888,-5019.9,-2308.3,-5824,-8674.6,-11614,-7882.1,1345.8,6112.4,5889.8,9141.4,12742,6898.7,-4598,-11548,-12143,-7384.2,413.8,6050.1,6777.2,5934.2,3330,1452.7,3969.3,6199.9,7405,5757,4769.3,3674.8,3605.2,4409.1,3687.7,2792.6,2206.8,61.648,-5616.5,-8700.2,-6875.2,-5217.7,-2064.2,3154.7,5266.2,1990.7,-350.31,-1497.3,-6183.5,-8881.6,-6266,-3515.6,-1216.9,-1996,-7782.8,-12153,-9506.7,-4656.3,-3709.5,1072.8,7416.9,6722.7,883.09,-2979,-6692.2,-12891,-12472,-6584.9,1788.6,11461,14251,9284.3,3628,-94.667,-4526.1,-8502.7,-9590.1,-7216.9,-4820.6,-4669.1,-4925.4,-3920,-1785.6,-178.52,1451.5,1733.8,-1509.2,-7602.8,-10018,-7499.3,-3789.9,-1610.5,661.22,2992.7,4293.8,2484,1689.4,1836.9,-1219.3,-1970.4,-937.34,-2233.7,-4309.8,-5523.7,-7079,-9080.4,-6156.5,-1709.1,-742.5,1152.6,4499.7,5097.9,1402.3,-1869.6,-3819.6,-5954.1,-6864.7,-6164.2,-2261.3,517.66,323.5,-2022,-1221.2,1550.9,582.45,13.777,423.6,-2546.2,-7892,-10980,-9455.5,-7006,-3233.4,1503.4,4651.6,6744.2,5893.3,2180.8,-1153.9,-1123.8,175.94,96.948,-666.71,-4764.8,-9297.5,-10108,-6118.4,-1677.7,2333.1,6668.7,7972.7,6985.3,7842.2,8233.1,6381,3375.6,2373.5,147.78,-2330.1,-1106.5,1183.2,1499.1,649.12,1398.9,1597.4,2946.5,5186.4,1798.6,-1340.9,-1933.7,-1255.2,-1117.1,-772.34,76.741,-1195.3,-3908.7,-6440.4,-8137.3,-10759,-10610,-5146.6,1838.2,7949.8,6772.3,-31.023,-4957.5,-7291.4,-4219.3,1038.7,4751.4,6386,3667.7,390.93,36.665,-102.93,-3574.7,-5277.6,-3171.1,-304.86,1825.7,23.655,7.148,2395,2817.2,317.92,-1773.3,-515.56,-1330.2,-4267.2,-4998.9,-2893.8,-2399.6,-3454.1,-897.63,-911.22,-4561.8,-8325.3,-11360,-9200.2,-5161.9,-5056.4,-3941.5,1930.7,5839.7,3036.5,141.11,1938,4174.8,1434.1,-911.41,-2407,-2708.9,-289.73,1802.7,2995.6,2714,-727.23,-3524.3,-4059.4,-1268.9,281.77,-3399.2,-6852,-7976.2,-9456,-11790,-8323.1,-1759.2,2645.1,2729.1,-1647.6,-4146.9,-4335,-5640.6,-9334.5,-12151,-12327,-12257,-11901,-9446.9,-3749.6,1032.2,2401.1,4799.6,5921.3,7648.6,8098.3,3567.7,491.43,307.67,-1535.1,-4141.2,-3321.3,-2735.5,-3996.2,-2778.6,-142.11,553.02,-2381.6,-1377.3,4550.1,7976.9,7826,5951.8,4530.9,2220,-3189.8,-7749.7,-8806.8,-2178.9,4291.6,4113.1,1607.6,1218.6,445.05,-2091.3,-61.835,1775.8,1498.3,3209,1845.7,195.34,-178.56,425.42,837.82,247.54,-147.03,-3326.6,-6938.4,-6480.5,-4947.2,-3677.6,1107.4,3912.7,2440,1301,-36.088,-1644.8,-2757.8,-4784.5,-5971.6,-7201.8,-5312.8,-920.71,159.57,341.22,1828.7,2417.3,1593,1203.8,-1312.2,-6158.9,-10516,-13643,-11381,-3972.8,1862.1,3381.7,3096.5,5089.4,3470.5,-734.32,-1966.9,-1575.5,-3525.3,-6438.9,-6463.1,-6151,-5044.3,-2009.3,-932.67,775.7,1551.3,902.53,1273.6,728.63,-2143.2,-7327.7,-8887.3,-5146.9,1602.9,3181,-975.65,-4479.3,-6711,-6910.4,-5747.9,-3390.6,2102.8,6178.9,7265,5993.2,6303.3,6591.4,3571.6,2199.2,1303.1,-906.93,-2556.6,-917.11,-1290.9,-5592.3,-8715,-11500,-7836.4,1297.8,7513.9,8495.3,7702,8132.3,3857.3,-2556.1,-4317.6,-1959.5,-40.937,1555.4,3880.7,2738,7.3724,-1071.4,-2146.6,-422.27,874.78,-159.24,-1405.4,22.268,2700.9,1744.3,1011.5,2010.7,304.68,-3156,-3448.7,-1267.6,651.66,1556.7,-1408.6,-6677.5,-9615.7,-11899,-14480,-13070,-6885.8,-1603.6,1697.8,2434,-425.2,-4209.4,-4714.6,-2936.5,-8585.3,-14439,-13868,-8860,-1155.1,5473.9,6313.8,3933.9,2770.5,2450.3,-128.23,-490.2,1714.3,2450.2,1046.4,638.05,787,-1295.6,-2663.8,-3316,-4717.2,-3876.1,-1934,-2738.5,-4821,-5712.2,-6803.7,-8878.3,-8182.7,-5175.4,-1453.7,2037.3,4042.1,990.69,-3533.2,-6337.6,-11237,-12045,-4351.7,1560.8,2215.1,-699.24,-2622.6,-2885.6,126.36,8525.3,10527,4074,-1763.7,-1469.5,2696.7,8185,10411,4608.5,-3167.5,-6180.5,-5609.9,-3944.1,74.22,5261.1,3579.7,625.54,1980.4,2413.5,-824.58,-3257,-4247.2,-5381.7,-5000,-3167,-271.68,3060.4,3022.7,924.13,369.48,3230.4,3392.8,143.09,-1663.8,-1292,-2439.8,-7195,-11483,-12344,-8820.3,-1565.9,3426.1,4440.7,2351.5,-333.41,-2138.8,-310.33,2565,-1965.9,-9246.5,-11722,-9354.8,-4225.5,3242.9,8613.4,10179,11205,9362,4352.2,1740.9,-546.9,-4133.8,-6585.4,-4945.2,-1658.3,-1492.8,-73.297,3553,4981.7,3722,2486.6,-520.96,-4647.5,-4966.9,-2377,2787.3,5729.2,2436.1,-2772.9,-6134.6,-6482.1,-5572.9,-4237.9,79.354,4305.2,4912.4,2665.1,2489.9,2579.3,2236.5,2241.5,335.65,-1825.5,-3364.3,-4640.4,-3856.8,-1309.5,168.73,-1537.3,-2162.9,-714.25,-1364.7,-3979.2,-5640.6,-5199.6,-3975.1,-3178.7,-3900.4,-4410.1,-3362.7,-2896.2,-2762.4,-2717.7,-1949.7,-1437,-3421.5,-3607.3,-2027.1,-2886.5,-6549.9,-7782.1,-5729.7,-3979.6,-1830.5,-1422.8,-2018.6,-2823.8,-5537.3,-7886.7,-7569.4,-4077.6,-3793.7,-6926.3,-7112.3,-4330.7,-2344.8,-2108.5,-3045.3,-7496.4,-9211.2,-7820.4,-4894.9,855.13,3174.7,140.95,-4338.5,-5664.4,-1504.3,758.54,1577.6,2438.2,3788.1,3842.1,5099.5,7279.4,6604.5,3223.4,-1965.3,-6358.3,-7127.8,-4820.5,-3001.5,-527.06,3808,5718.5,4844.5,3809.7,3031.1,705.14,-2871.8,-4021.9,-3179.3,-807.81,945.88,-1419.7,-3173,-3316.1,-3406.4,-3879.8,-5537.4,-5603.2,-5594.6,-4640.6,-1548.9,1770.9,2581.2,2214.2,4135,5695.9,5324.2,4245.2,2490.6,3193,3899.4,2654.4,742.46,1195.1,1953.9,-1367.1,-3917.2,-3933.5,-5196,-9652.6,-10593,-6726.7,-742.42,5071,5908.4,4222.9,1556.3,-1825.5,-4439.8,-2728.1,1380,1029.9,-2869.9,-4028.2,-3071.3,-1859.2,-946.3,1660.5,3398.4,2818.2,2044.2,-14.849,549.42,3059.8,3686.6,1974.7,1284,1720.2,-916.9,-3123.1,-2370.7,-834.68,-572.95,51.634,1141.2,1345.9,277.65,-1493.4,-2208.7,-604.32,1711.2,977.85,-2169.1,-2990.4,-2563,-3441.5,-3571.3,-2989.8,-4252.1,-6726.3,-6434.3,-5082.4,-4908.4,-4908.2,-4658.3,-2623.3,-635.47,-1833.3,-3572.4,-5521.2,-8061.6,-13317,-16229,-13408,-8961.9,-6771.4,-6205.2,-3088,665.22,4021.3,6100.8,7559.4,8087.1,7651.3,6892.6,4375.6,1373.1,-567.19,-3019.6,-3473.2,-1321,1232.1,1259.1,2253.4,4945.5,3858.2,1066.3,-948.31,-2678.3,-4483.5,-5530.7,-5402.4,-3429.8,3129.3,5534.9,2531.2,920.48,1567.3,749.65,-912.65,-822.9,-1523.6,-3554.5,-5036.4,-7311.6,-8540.5,-6526.9,-2102.3,989.87,1680.9,2256.5,1939.2,99.18,122.04,-3.6409,-3486.7,-7206.2,-5876,-2990.1,-948.99,276.68,754.01,1739.2,2044.2,507.57,-840.01,-909.22,-1046.8,-2979.1,-3208.1,-1684.2,-1568,-2429.3,-649.56,-2158.8,-5898.6,-6885.7,-5769,-3827.6,-2099.1,-1701.4,-1944.1,-2269.7,276.6,2297.2,1106.7,1003.1,1406.3,-1151.7,-3720.9,-3747.9,-4390.9,-5474.8,-5180.7,-4431.1,-2226.2,454.8,778.05,-381.28,-405.03,254.94,-3094.3,-6211.1,-5599.2,-3519.6,-3140.3,-1949.4,-222.28,-426.83,-2009.3,-5394.2,-8137.2,-7778,-7783.2,-8535.3,-9258.5,-6540,-1359.4,1109.4,1789.7,2041.6,946.34,-1575.2,-3477.8,-4636.1,-4481.2,-2021.1,-318.35,-141.21,-275.88,-71.484,252.45,1372.8,3083.8,1955.3,-470.98,235.65,3371.2,4407.2,4671.1,7766.8,7730.7,6129.9,4774.5,2587.3,1597.5,1940,1509.9,153.83,1171.8,5022.6,5248.8,2172.4,593.77,-990.03,-2693.6,-2272.4,-1392.5,-3419,-3606.4,-3186.4,-2287.4,2102.5,6998.9,7368.6,6724,8077,7962.6,4532.1,3732.4,4603.4,3119.9,-197.18,-1161.8,-1709.4,-2547.7,-1962.7,-2127.4,-2652.7,-2664.3,-4415.5,-7625,-8792.6,-7784.3,-8470.7,-5947.2,-594.05,3187.6,1390.4,-1500.5,-2150.2,-2337.9,-2194.6,-2865.4,-5136.7,-5903.1,-5632.7,-6060.6,-7209.4,-6049.2,-4850.8,-5596.5,-4617.8,-1574,-780.23,-3016.6,-3514.4,-2215.3,-2537.9,-2943.4,-4297.7,-5926.2,-4731,-2310.2,-2427.9,-3132.9,-1379.7,-476.6,-2045.5,-1811.6,-1294.8,-3244.6,-6345.8,-7063.2,-7302.5,-7592,-7624.2,-8449.7,-7626.1,-5233.5,-4383.9,-5142,-4107.9,-1145.5,-1184.4,-1604.2,-364.22,-212.87,-2991.8,-4559.7,-3416,-3701.7,-4276.7,-2665.4,-1529.3,88.572,931.72,-1486.1,-3844.8,-2563.3,-38.871,9.1152,1092.2,4369.1,5139.7,2117,689.28,618.99,-973.33,-1442.5,-2120.3,-2473.1,-2492.1,-3415.8,-2904.9,-1694.3,-515.21,-769.63,-3625.9,-6027.1,-4590.4,-2322.1,-998.31,442.46,412.31,-652.09,-660.7,-558.17,-165.05,-855.96,-2525.7,-2629.3,834.1,5098.7,5137.9,5461.9,7152.2,6649.6,5893.5,7264.6,9039.4,8883.9,8557.5,7392.8,6699.5,7725.9,7328.4,7210.1,8089.3,9524.3,8790.7,7104.8,9896.7,12448,8333.5,4493.8,6800.2,8885.2,6773.1,5003.5,3473.2,2706.7,3713.4,5523.4,5758.6,6003.2,7166.5,4000.7,-1257.4,-4536.4,-5331.8,-6535,-7753.6,-6377.5,-5109.8,-3925.1,-4026,-5694.3,-4398.8,-3913.2,-7289.8,-10377,-9559.8,-9923.2,-14333,-13764,-9306.4,-7863.9,-9499.7,-10901,-10850,-10015,-8030.3,-7306.3,-7764.2,-7207.7,-8360,-11457,-12335,-9867.5,-9438.8,-10654,-8314.6,-4124.8,-1989.4,-3051.2,-3807.6,-2826.4,-2610.5,-3694.2,-6643.1,-7575.2,-6857.2,-7740.8,-11349,-14567,-14502,-15051,-15123,-14036,-14122,-15962,-14533,-9376.6,-7055.9,-6033.9,-3734.6,-3161.5,-2680.5,-1627.7,-65.462,2609.9,7095.4,10670,8904.2,5923.1,4535.1,3952.7,3407.3,-7875.1,-5926.3,-7805.4,-7575.8,-3496.4,-2092.1,-4058,-6528,-8144.7,-13905,-22831,-25893,-18446,-8442.5,-7622.1,-7714.2,-4648.8,2616.3,7532.4,5872.8,3320.3,3323.9,2154.8,-1912.7,-2049.1,-113.2,556.31,1926.4,1230.8,1380.9,3249.5,3693.6,2138.8,1068.7,2752.6,1392.6,-2022.2,-1768.2,-824.32,-2829.2,-3621.7,1396.2,6293.5,6547.4,2695.9,-2518.2,-4837,-4460.3,-4697.8,-4476,-3823.1,-4215.9,-6129.4,-6015.6,-3669.1,-2919.1,-4108.9,-2888,946.22,2740.9,1852.3,-714.57,-2427.4,-2609.4,-2461.4,-1987.2,-1499,374.58,-103.5,-3208.1,-4797,-6048.1,-8572.4,-10060,-9999,-16000,-27026,-31195,-26548,-13467,2583.8,5686.1,-5817.9,-14507,-10244,-2549.7,3431.9,10312,16609,15038,9425.2,7542.5,8072.6,10823,10098,5622.7,3055.9,3369,4453,5576.9,6499.9,4744.1,3274.2,6324.4,8120,6788,3039.4,1663.4,1977.1,1516,1179.1,47.478,754.84,3637.3,4357.4,2395.4,983.57,2430.2,1996.1,-924.62,-2028.1,-1631.4,-2659.5,-3224.5,-739.44,1653.7,2291.2,1348.6,-1133.1,-1822.2,-204.28,772.25,839.96,3004.4,3158.7,-2453.2,-6357.1,-5288.7,-3097.9,-3302,-2817,372.9,2441.7,1646.7,-2699.6,-6706.6,-11864,-23938,-33650,-34241,-23480,-4256.3,6652.3,10432,11656,7981.6,-247.33,-3857.8,-877.89,1941.5,7111.2,13657,17666,18378,13228,7088.7,5643,6341.9,4126.8,1611.5,456.37,2680.6,4453.2,5081.7,4532.4,3640.3,3651.3,4081.8,2227.4,1505.8,1667.3,-836.63,-2606.2,-2178.9,-3165.9,-6413.9,-8645.3,-11530,-15929,-16398,-11145,-4540.6,-915.91,-203.24,-3973,-9661.9,-12203,-11085,-5565,-2238.1,-1004.5,-2386.9,-2271,5311.4,9725.6,5067.8,1474.2,2845,3507.5,3360.6,1732.2,-2423.2,-4545.6,-3504,594.53,4233.9,3977.4,2678.2,-1112.7,-4031.5,-4827.4,-5553.1,-5978.6,-4709.6,-1757.7,-593.15,-1321,-2835.7,-6528.6,-8512.9,-7148.2,-4491.7,-677.01,2935.3,1380.9,-5612.5,-8978.4,-8936.2,-9504,-15699,-23933,-26144,-23151,-15004,-1540.3,10042,15042,11963,4802.8,1406.3,4148.7,6347.2,4209.8,2175.4,1933.6,460.15,-4241.2,-7243.4,-7891.7,-7605.4,-5825.1,-4699.9,-2758.7,445.83,3196.3,3043,2249,2751.9,-1302.8,-5769.4,-6899.9,-6387.9,-5875.7,-4635.5,-5743.3,-8624,-8079.1,-8615.7,-9334.4,-7727.2,-6850.8,-7679,-5891.7,1435.9,5450.5,4207.7,4718.5,7712.5,8613.8,6133.8,5228.4,4973.3,3383,1271.7,-94.065,-1185.7,-2123,-4382.8,-7593.5,-6314.9,946.3,2142.7,-2029.6,-5489.7,-5266.1,-1826.8,2405.8,6711.2,7633,4776.5,1189.6,-176.81,2980.8,6441,6883.4,5427.1,3038.3,-2515.5,-11683,-14531,-9534.5,-456.11,6380.9,8250.2,8287.5,5895.1,3160.8,974.15,-2278.5,-4206.1,-3870.2,-1850.2,1327.7,4934.1,3297.4,-2769,-5331.9,-3029.8,676.91,2354.6,3696.1,3031,-1323.7,-7263.1,-11359,-11265,-6155.5,-2050.6,-881.66,1207,2669.3,999.48,-987.7,-2776.3,-3791.6,-4145.8,-2978.1,2893.6,8997,11099,9658.1,8004.4,7116.6,4616.5,971.94,-2404.8,-5082.7,-5461.5,-5000.6,-2914.9,1305,1875,-1580.7,-6642.1,-11757,-11031,-3452.2,5728.7,13250,15520,12647,6465.6,1717,1002.9,106.59,-703.35,-97.053,-2824,-9726.8,-12634,-7383,1288.6,5855.5,5298.1,2830,2792.4,3960.1,1770.1,-3331.6,-6546.5,-7826.7,-9645.5,-8222.7,-2704.5,2080.5,166.18,-1632.3,377.05,1388.8,1050.8,-2272.1,-3435.4,251.75,3447.7,3864.6,2366.5,411.55,-1033.7,-2631.4,-3273.7,-2609.6,-1222.5,-873.23,-426.69,-896.51,-2548.3,-2687.2,-4038.8,-3736.8,-1581.7,-1020.2,-2928.4,-4923.5,-4864.3,-7299.9,-10131,-9434.8,-9485,-13281,-16823,-16379,-12928,-7924,-6080.9,-7640.2,-7687.3,-4547.2,-3104.7,-3438.3,-523.96,4518,4068.7,4655,5118.7,2304.9,-1293.7,-2892.1,-4313.6,-6005.6,-5289.6,-3759.1,-2257,-482.48,-1311.6,-3925.6,-5838.2,-4229.5,-1411.6,510.53,1459,1043.7,408.94,116.59,1502.6,1210.6,-999.92,-3155.2,-5165.4,-4884.7,-3733.7,-2911.2,-3659.7,-3457.1,-1421.5,-2257,-2518.7,-432.56,632.9,-913.12,-2616.7,-3055.5,-3631.6,-6744.6,-12442,-19972,-30476,-32441,-23609,-11450,1399.9,5449.8,1837.1,3370.3,9637,13604,14550,14744,16007,14537,11451,7970,4946.6,3504.2,1896.5,-706.95,-3083.4,-1496.2,-776.66,-763.69,2007.6,5620.4,4580.6,351.24,-1522.9,-2835.7,-3353.4,-1258.9,1490.4,3770.5,4224.7,2029.4,-848.62,-1201.1,165.02,404.22,2562.9,3663.4,1631.5,-578.44,-189.76,1605.2,283.07,-1573.1,-1808.3,-1821.5,-147.51,581.01,-2361.7,-5878.4,-8083.2,-12718,-22228,-29869,-25535,-13087,-1996.3,6082.8,11012,10059,10119,11834,13338,15926,14192,8607.4,6740.8,9008.7,10031,9404.9,9434.6,10450,8280.5,5264.7,4530.9,3550.8,3301.5,3295.7,1659.2,1798.5,1385.6,-2621.7,-6870.3,-6618.8,-2466.5,-545.58,1300,4018.9,3566,-1222.3,-4756.7,-4178.3,-5122.5,-7139.6,-6284.1,-4294.4,250.41,2671.6,805.34,-2218.6,-2067.9,131.07,358.21,1103.6,1721.2,-1249,-3424.6,-52.77,-231.45,-5556.4,-8454.8,-7994,-7094,-9417.6,-11050,-9653.6,-8114.4,-3572.9,1119.5,5884.3,10088,8732.3,2878.8,-876.49,-2746.3,-5700.7,-6071,-3948.1,-474.68,1902.5,1765.3,419.99,-1848.9,-2415.6,-1916.8,-3206.4,-3155.1,-1470.5,-3211.5,-8099.7,-10363,-10480,-9379.3,-6230.2,-3963,-3930.9,-3524,-3408.9,-5420.2,-6871.8,-5807.3,-5910.6,-7763.9,-8889.9,-7705.5,-6925.9,-7882.2,-9280.7,-11576,-13050,-15120,-15386,-11844,-6726.7,-329.48,7005,13172,12080,4634.2,-1551.9,-4228.2,-5841.2,-7952.8,-7150,-2108.5,1207.9,2084.4,2047.2,1356.1,883.85,-1025.7,-5591.2,-9752.3,-11035,-9669,-7097.5,-4170.2,1153.3,5494.4,6209.1,6332.5,4901.8,2200.2,1790.1,573.59,-1739.4,-2785.9,-3750,-5165.5,-6174,-5058,-2215,-1855.9,-1603.1,768.75,-875.82,-3505.6,-1655.9,-614.72,-4677.6,-10164,-13534,-11134,-3754.1,2699.4,6182.4,11215,12523,6734.5,1700.1,735.42,-420.24,-4212.8,-5123.8,-2231.2,1602.1,7178.3,9590.6,6624.9,2794.7,-2079.7,-6058.4,-5051.3,-112.64,3724.5,2603.1,1056.6,76.069,-2733.8,-5297.4,-3529.3,552.61,3981.9,7021.5,6998.9,5208.6,1183.5,-3035.7,-4050.1,-3108.2,-2965.5,-4912.4,-4837.9,-702.91,3261.4,3923,2951.3,2763.4,1755.5,824.29,1392.5,2616.5,3944,1498.1,-1826.8,-1827.3,1428.8,2384.8,-3422.1,-9004.2,-10768,-10982,-10079,-5777.6,529.38,5016.4,6914,7445.9,5614.4,3704.9,3512.3,4916.8,7568.2,10142,8747.6,4568.1,2094.5,1106.5,222.58,423.76,2178.6,2190.6,67.162,-83.662,969.4,2608.1,4597.4,4380.7,1907.2,1066.1,2412.1,1790.7,-916.85,-2053.6,-1569.6,-2973,-3012.3,-379.93,2304,5375.2,5298.1,3002.4,2494.9,2706.1,-1143.5,-6421.2,-8774.1,-9768.6,-9941.1,-5640.3,389.45,3486.3,1288.5,-801.77,-2057,-6697.9,-14130,-19242,-16455,-7404,2795.5,10452,10741,7457.8,4954.6,3038.2,2730.9,2771.8,491.16,-3306.5,-4420.1,-4715.5,-3940.3,-1166.1,423.85,2516.3,3282.2,-218.65,-4177.4,-4436.7,-1987.6,-2476.9,-4333.6,-5101.3,-5777.4,-7327,-7355.3,-6633.5,-6505.4,-4529.8,-2678.6,-2956.8,-3651.8,-3927.2,-5129.7,-5330.6,-3775.7,-5074.4,-8467.7,-8330.3,-6775.7,-7075,-8298.4,-7705.9,-7029.2,-8666.4,-11218,-11492,-9036,-5430.8,-6884.6,-12944,-15747,-12744,-10755,-11765,-8619.8,-2844.7,-4019.2,-7644.6,-10149,-8667.9,-3992.5,1238.8,3661.5,4698.1,4415.1,4161.6,4292.5,4323.6,1921.8,-3295.8,-4949.8,-2418.8,861.58,1910.8,1728.7,1683.7,-120.92,-2102.7,-2966.5,-3226.8,-1891.2,-32.122,-1521,-3104,-869.12,570.71,-274.62,209.71,1767.9,2669.2,2120.9,3387.8,3478.6,2741.1,1945,263.21,-222.49,275.27,-472.36,-2268.2,-1385.3,1421.2,682.7,-797.21,-13.383,1348.3,43.957,-794.12,-371.24,-17.212,321.36,-120.34,-1272.3,-1336.4,-1052.3,-1646.5,-1246.9,387.09,440.98,-2618,-4881.8,-4498.9,-3083.1,-1639.7,862.74,3281.7,3281.9,2070.3,479.89,-1686.8,-3386,-4655.2,-7024.3,-8726.7,-7759,-6816.6,-5451.2,-2826.4,-314.13,624.52,1076.7,2701,3454.8,4112.1,3605.6,1872.2,952.75,-210.07,-1109.9,-1365.5,235.1,3252.5,3146.3,2942.7,4377.9,4862.6,3184.8,2165.2,1721.7,-871.68,-4114.3,-6087,-6734.3,-2774.3,3851.6,5027.4,4236.7,7020.5,10846,11575,11316,12226,12239,11393,11612,11588,11490,12109,11475,10667,9752.1,7859.3,6592.1,6926.2,8410.8,7335.8,5226.2,4361,3618,1285.8,-946.85,-354.45,345.57,761.92,495.49,-198.28,-597.67,-1515.2,-3617.2,-4901.5,-3468.2,-1772.8,-3039.4,-3789.6,-3898.4,-5260.7,-8756.5,-10767,-10548,-10400,-11408,-12083,-11126,-10113,-9685.3,-9538.6,-8772.2,-6636,-6063.2,-6183.8,-4052.8,-1287.6,-990.27,-730.91,1134.6,-105.48,-2858.5,-4475.6,-5371.8,-5568.7,-4958.3,-5150.3,-5640.4,-5156.7,-3696.1,-4771.4,-5231.7,-1520.9,211.95,-2978.1,-4703.2,-3872.4,-4335.3,-4945,-6245.4,-8049.2,-9060.7,-9245,-9654.2,-10439,-10531,-10067,-10168,-8272.4,-6283.7,-6798.3,-7188.9,-5292.4,-4145.3,-5561.1,-6522.7,-6990.8,-6420.2,-4857.9,-5268.4,-6813,-7040.9,-4514.9,-4334.5,-4940.1,-2466.7,-782.59,-1975,-3996.8,-4156.9,-4524.8,-4906.5,-4946.8,-5780.8,-4855.9,-3084.3,-1669.7,-2430.4,-2842.3,-2569.7,-4212.2,-4556.3,-3632.6,-2195.7,-2047.5,-2232.7,-2141.3,-2730.1,-4159.2,-4937.4,-6029,-6826.8,-6127.4,-6631.3,-5002.4,-1003.9,701.43,-895.32,-2775.2,-3409.4,-4974.3,-6593.2,-6154.1,-3776,-1280.2,461.63,1609.7,1864.2,2656.2,3205.1,5193.2,8509.1,10808,8565.2,3906.2,2618.5,5400.8,6350.7,6602.5,8591.2,10718,12074,12871,12023,10903,9406,7285.1,5223.9,5068.4,6222.8,6461.3,7771.9,7829.2,6046.3,2575,793.43,2207.1,4361.7,5014.9,3532,3602.8,5084.6,5007.8,2823.2,392.71,403.55,-208.78,178.86,2885.3,3818.3,1207.6,-1846.8,-2411.1,-4121.6,-7010.3,-8084.6,-7423.4,-6224.9,-7657,-11386,-11440,-7175.1,-5775.5,-7969,-8793.3,-8757.5,-8758.5,-7541.3,-4896,-1745.6,-812.9,-481.74,-387.71,-1947,-2548.7,-2293.2,-1925.6,-1020.4,-570.68,-57.931,-1055.5,-2475.6,-3229.4,-4828.4,-6430.6,-6442.7,-7413.7,-7424,-5242.9,-4521.6,-3545.7,-312.64,2875.5,1882.8,-486.28,-326.42,-296.02,-190.28,2433,4950.9,4376.4,2897.5,2454.8,2895.4,5363.4,7902,10378,12785,13457,13064,11365,9352.1,9109.6,7073.3,5411.4,7345,8988.5,8255.9,7774.1,7966.3,7465.4,7148.3,7251.5,7543.4,8174.2,7327,5205,4043.8,3504.6,2725.7,675.32,15.906,-161.75,-1216.4,-2344.2,-1477.6,-808.23,-1485.9,-1403,-1828.9,-2007.4,-497.23,-708.88,-3358.5,-4561.7,-5044.5,-7482.4,-10280,-10930,-9466.5,-9599.1,-9849.3,-9056.2,-9038,-10051,-10874,-11449,-11136,-10838,-11027,-11084,-11622,-11680,-13132,-14535,-14816,-14889,-14642,-12627,-10704,-11166,-12234,-13131,-13677,-12801,-12347,-12633,-12098,-9388.6,-9399.4,-13495,-16799,-17584,-17244,-16639,-14316,-10351,-6366.5,-1684.8,1837.1,5070.3,6776.5,5871.2,4502.7,3793.6,3414.5,1334.8,-117.23,549.35,1399.4,1733.2,2489.9,3268.1,2817.6,1563.9,-807.53,-2855.9,-2462.3,-1396.5,-217.87,864.02,1675.5,1134.3,-1341.3,-1914.7,651.06,2986.3,4677.5,7376.6,9678.6,7995.7,5334.7,4294.8,4043.4,4697.5,6562,7149.4,4747.7,2701.7,50.342,-2158.1,-1484.4,-1751.3,-3950.4,-5618,-4803.9,-3347.8,-1924.2,277.43,1532.6,1562.3,-125.41,-2092.9,-2457.7,-1534.4,-1669,-3290.6,-3334.4,-1757,-880.34,-621.38,-625.31,-1858.7,-3658.4,-4735.7,-5429.3,-4178.4,-1903.1,-1729.2,-3880.8,-6424.4,-6526.6,-5657.5,-6064.3,820.58,2775.9,-793.03,-3848.2,-3762.9,-6396.1,-10649,-7824.2,-931.25,1022.2,-2266.2,-2287.2,-1967.1,-3529,-4015.4,-4502.2,-5207.8,-5175.6,-6307.3,-8234.1,-7793.3,-3183.8,-2368.9,-3410.2,-31.293,3214.7,401,-3707,-2941.4,-2853.7,-3813,-3009.3,-2107.2,-91.206,981.21,-1461.7,-4151.3,-2802.1,-1564.6,-6712.4,-11793,-12927,-12100,-11072,-7090.8,-2571.9,-2304,-5676.9,-9168.4,-12584,-13028,-9553.8,-4219.6,288.63,6064.6,7437.7,5075.5,5864.7,6523.7,3925.2,-47.682,-378.85,-683.2,-1603.7,120.56,1424.3,2082.6,3340.3,3143.1,1067.5,1033.4,3091,78.413,-1956.6,259.11,1256.8,-1640.5,-4064.7,-1941.7,-966.18,-1860.7,-2536.3,-3296.9,-2720.6,-1868.3,-2693.1,-4632.6,-3884.4,-2974.5,-6444.7,-6630.8,-4165.4,-4931.1,-7831.1,-6013.3,-3098,-4212.6,-3761.1,-3560.7,-5804.7,-7788.3,-9771.9,-14041,-14416,-4635.2,3904.4,4745.8,5341.7,6364.2,6720.4,6401.1,7507.5,6031.5,3214.2,279.99,-3158,-3371.2,-753.8,1755.7,1782.5,2878.3,4615.3,1196.8,-871.95,1083.4,2945.1,664.89,-941.25,-59.495,-728.81,-1106.6,-731,-722.38,1736.2,3563,1607.9,-1972.5,-2658.2,-2968.9,-6424.1,-6322.2,-2726.6,-2417.3,-7002,-9625.4,-7727.4,-3086.8,1051.5,2478.8,2416.3,4605.4,4089.9,-170.42,-1650.4,2374.4,1898.3,-1353.2,-1539.1,-2608.7,-6940.4,-8846.4,-3885.5,-99.32,1613,3543,2645.9,1074.2,1630.3,2761.3,2543,4327.5,6036.2,1537.6,-343.67,2879.3,4520.9,881.23,-1539.3,-1521.5,-4516.5,-5350,-3852.3,-2583.4,263.45,1565.9,1671.4,3381.3,6716.3,6746.4,3319.3,2972.7,5658.3,5475.7,2538.6,3183,2992.8,919.94,819.36,664.2,1246.7,2160.5,1075.8,-1423.9,-1666.3,751.29,-720.61,-2655.7,-999.49,372.51,-2324,-3681.5,-1355.2,-987.46,-1378.5,-1109.3,-1530,-760.13,-1010,-3379.8,-6853.6,-7097.6,-6055.9,-9714,-11536,-11323,-11506,-12410,-8727.1,-2900.6,347.09,6431.5,11050,7914.1,4747.8,3669.8,767.36,-1328.9,933.8,1526.2,-699.17,-548.53,835.69,-272.51,-2437.8,-1311.2,-1628.7,-3335.9,-3106.4,-2819.5,-2613.2,-2230.6,-3615.2,-6601,-6428.8,-3453,-6185,-10173,-11068,-11591,-13632,-12522,-6473.6,-3430.5,-2527.9,-2798.9,-4230.1,-2620.2,-720.37,-795.92,-2333.5,-1213.6,398.59,-1369,-1487.5,772.79,1223.9,-946.59,-731.99,-22.513,-1155.7,-1445.6,-2510.2,-3674.5,-3081.6,-4096.4,-7343.9,-9014.4,-6088.9,-6567.8,-9455.6,-6880.9,-612.98,1770.4,674.61,1696.1,1309.3,-748.9,-2501.9,-3582,-1589.9,-142.31,-758.25,-1943,-761.39,2477.7,-401.71,-2767.1,-912.94,1385.6,1824.5,2938.4,4738.4,3894.3,2555.7,1658.3,190.87,634.49,652.41,-1074,-2532.6,-785.66,-1108.3,-4019.3,-2064.1,1848,1757.9,-1533.8,-1607.8,-2332,-5889.3,-8903.1,-9408.8,-7066.9,-1284.4,4018.5,5099.3,5142.1,6060,3370,650.33,1465.6,2403,122.16,-907.4,1805.8,245.37,-4407.1,-8298.9,-12226,-10699,-7175.3,-2898,1959,5682.6,8229.8,5547.7,3557.5,5015.5,5238.1,2047,1827,3620.5,2718.5,1898.7,1373.4,688.74,1175.5,1165.6,-1488.7,-4559.4,-3004.1,-3158.9,-5108.3,-2280.8,2208,2585.5,1271.5,2152.7,1849,905.29,1023.2,-1253.6,-2706.3,-1724.3,-2027.6,-4645.1,-4392.7,-829.7,-1323.6,-1838.4,974.73,3494.9,1985.3,-7.1498,105,-2309.8,-4371.1,-3029.3,-1734.7,-1054.5,-1681.5,-4140,-5438.8,-3054,-1251.8,-3671,-3510.1,-1429.7,-1190.5,-3300.1,-3217,-1914.5,-1816.4,-1313.6,-697.41,-205.26,-654.76,-2022.6,-4255.5,-4368.3,-261.22,663.15,514.86,3732.6,5593.1,3178.3,206.2,809.07,541.55,-1402.5,-2983.7,-4963.2,-3665.5,1047.4,2736.9,222.62,-409.29,1394.9,-1616.8,-3861.2,-1719.7,-184.48,-2723.1,-4113.6,-2760,-2512.9,-1158.4,-1049.1,-3305.2,-4429.3,-5514.6,-6773.5,-5457.2,-718.16,1273.5,-2337.6,-4114.3,-2921.3,-3703.3,-6349.4,-5220.6,-3351.2,-2930.9,-1426.2,-493.46,2581.9,5096.1,3554.5,-540.25,-3787,-4152.6,-7573,-10099,-6923.2,-1184.3,1047.2,824.74,2195.3,1971.4,603.14,51.931,-502.57,525.61,1252.3,-644.22,-2448.8,-304.13,1755.7,-1931,-3704.2,-3377.9,-3680.9,-5550.3,-4048.9,-1043.4,-1100.8,-1013.2,-691.64,-656.76,307.52,-647.74,-4804.4,-8366.1,-5981.8,-3382.5,-3254.3,-1683,414.53,-2326.4,-5921.1,-4011.5,-235.1,1390.4,2322.7,2259.9,1001.3,-911.06,-4848.8,-8146.6,-7667.7,-3250.2,-2509.9,-1781.9,1713.9,3873.7,1844.3,1171.2,3058,1874.5,9.5927,-782.78,-3604.4,-4579,-4015.4,-4437.9,-5116.9,-2059.5,-99.093,-4188.2,-6773,-6125.6,-5576.3,-6261.5,-4774.6,-2366.4,-703.89,1468.4,911.19,-339.63,2707.5,4137.8,1581.8,1095.9,5510.5,5170.9,631.45,819.82,3099.5,1810.7,-535.7,964.88,2040.8,1538.8,1590.2,668.02,1129.2,1539.2,516.87,-265.66,339.23,2341.2,-789.41,-3355.9,-2101.5,-2760.6,-7965.8,-10797,-9367.9,-7404,-5719.4,-4385.8,-2874.9,469,2384.1,1869.8,1794.1,4152.8,3706.2,-535.31,-830.87,2194.2,2202.2,-499.12,817.39,2100.8,323.4,-2225.4,-6184.3,-9078.4,-7822,-3720.8,-926.01,2520.8,7765.8,6651.3,2462.8,2290,3824.2,1769.8,-778.65,-342.39,-614.66,-980.79,-873.6,-1372.5,367.92,3201.3,3462.7,2231.6,2604.8,2369.6,-2329.9,-3154.9,-199.38,-818.3,-5057.2,-5648,-3695.8,-2926.4,-1224.2,806.89,2145.6,3768,3086.8,-53.092,-2606.5,-2049.9,-3108.2,-5819.8,-3975.3,-78.32,391.23,-1900.4,-1593,-1662.3,-3448.5,-3245.5,-2425.9,-1617,-1392.7,-2788.5,-5330.4,-5636.1,-2738,-3586.1,-5026.5,-3412.8,-1741.4,-4031,-5751.5,-5004.1,-6874.7,-8327,-6619.2,-4837.2,-3498,-3155.3,-4097.4,-5582.4,-3402,-148.83,-1519,-1742.5,217.62,458.87,-1842.4,-1622.4,-565.11,-1705.6,-1857,-1784.4,-2246.6,-1458.2,-1685.7,-4679.4,-7046.4,-5409,-4519,-4353.2,-2533.7,712.38,2475.2,2317.8,2379.8,1321.3,-321.77,585.37,107.49,379.09,2492.9,3053.6,1507.4,1550.7,2525.1,-2387.7,-7500,-5466.8,-735.94,1094.2,1773.9,3245.1,2610.1,901.26,-549.85,-1518.4,426.68,1160.1,-2085.6,-4989.1,-3067.8,-1860.9,-4290.9,-3901.6,-2143.6,-4540.6,-8906,-7001.3,-838.91,2903.5,4888.7,4095.3,3551.8,4549.7,3598,1104.1,-130.31,1793.8,137.69,-2049,367.65,3634.4,2329.1,-108.65,1012.4,-150.5,-4924.9,-10217,-13925,-11353,-6294.4,-3595.4,-3432.6,1493.7,8871.2,7249.4,4201.5,4931.3,5559.4,2734.2,1850.6,2848.9,961.91,-861.46,-788.17,-353.37,1621.7,1929.7,-727.59,-2778.4,-827.77,-341.86,-4014,-3226,306.37,10.549,-2908.4,-2826.6,-3187.3,-5058.6,-5516.9,-6602.1,-6664.6,-5191.5,-4226,-5324.9,-4736.9,-2187,-3624.4,-4471,-2337,-3705.4,-9654.8,-13209,-12653,-10738,-6327.6,-346.68,2537.6,3244.7,2361.6,1289.3,322.07,457.05,1665.7,-33.714,1477.4,4804.2,5702.7,3312.9,2390.7,2608.2,755.2,21.606,145.13,-674.08,-31.489,457.66,-1165.9,-2653.8,-1059,-1349,-2739,-703.23,1655.8,1289.7,86.93,1516.9,972.85,-1766.2,-2479.8,-3192.5,-2351.3,-880.11,-1791.6,-4622.3,-5357,-3382.5,-7578,-17002,-22521,-21937,-19585,-12099,-1621.9,9188.8,17506,16017,8667.8,6681.3,6010.1,821.31,-3921.6,-620.5,3946.1,2197.6,1997.6,4814.8,5923.4,4768,5470.7,6132.1,4362.4,2652.8,444.51,-376.77,1116.9,907.09,-1474.1,-2199.2,509.01,-447.93,-3199,-1717.4,793.75,-99.75,-1475.2,293.13,688.3,-745.67,-1945.9,-4023.7,-3288.1,-1763.7,-2930.1,-4786.4,-3189.9,-950.2,-3605.4,-4095.4,-736.51,385.84,-5073.2,-9026.3,-9443.8,-11682,-12440,-13082,-16829,-18885,-17551,-14006,-5933.9,8467.1,16318,12898,10105,9876.2,6763.5,3562.5,4762.3,5606.6,4062.6,3062.3,1935.3,1426.2,1914.6,1286,-486.86,-1321.9,-259.6,-3069,-3978.9,-546.36,1888.6,279.61,-1071.3,757.88,243.58,-1231.6,-1412.9,-2706.1,-2118.6,-853.73,-894.81,-2276.1,-1990.2,-983.14,-4267,-5745.3,-3601.3,-2139.3,-3620.8,-2453.8,-389.94,-1149.9,-1972.7,-1230.3,-543.24,-394.44,-1199.1,-3160.7,-5811,-5655.4,-5811.7,-7227.9,-3590.9,420.2,-877.35,-4143.7,-3837.1,-5067.3,-6700.2,-5324.1,-3415.3,-370.95,2871.2,3770.3,2235.1,2332.1,3823.4,-117.84,-3243.7,-1947.3,936.26,1083.5,-274.51,540.07,204.6,-938.42,-1450.5,-2273.9,-1263.2,683.57,-1929.2,-6683.1,-6459.7,-4727.2,-5980.8,-3907.6,1141.5,2747.2,-1481.4,-3564.2,-1950,-1275.8,-2012.1,-4241.7,-5459.6,-3145.1,-1010.5,-1354.3,-981.27,2828.6,891.58,-3644.2,-1500.7,2579.4,1278.8,-1039,541.73,960.02,-204.43,47.688,-825.02,-561.83,913.23,-78.279,-2105,-1527.5,744.44,-831.55,-1299.5,1057.4,1733.4,-2311.6,-3966.9,-1595.2,-1036.7,-1586.9,-2437.2,-2983.4,-1350.1,-1955.1,-6909.1,-9872.8,-7573.9,-8097.3,-14615,-14969,-8536.6,-3825.3,-722.47,4970.9,8340.8,7229.4,5171.9,4471.5,6098.7,7287.3,4791.5,2237.9,2000.6,3998.6,2396.7,786.39,3145.5,4216.3,993.06,-930.3,273.54,-645.83,-1668.5,-637.11,-460.07,352.05,1246.1,1013.6,245.81,1670.8,3491.3,661.36,-506.9,504.84,-126.47,-3194.6,-4470.3,-5157.3,-7499,-8387.7,-7045.1,-4633.9,-988.98,450.41,-625.42,-1047,2161,2638.9,-403.93,-436.14,924.44,531.26,-1465.6,-1588.7,-2170.2,-3347,-3389,-4205.9,-3481.3,-261.39,1443.2,-225.95,-566.85,1150,-1663,-5038.9,-4233,-2122.9,-3628.3,-4597.4,-2304.5,-2239.3,-2668.9,-2423.4,-4169.4,-4951.9,-3959.4,-4398.7,-6489.2,-3952.2,-186.16,-901.85,-933.56,1114.7,395.9,-3258.2,-4806.6,-4821.4,-4624.6,-2304.3,-1312.2,-751.68,2159.6,3238.6,1155.3,-526.4,1327.8,368.69,-2633.6,-1785,613.92,-1036.3,-4241,-3757.9,-3672.6,-3666.8,-2166.5,-1536,-351.84,1662,1721.1,-287.77,-1050.9,-1644.6,-6550.1,-8436,-5192.4,-2192.3,-4305.6,-4459.6,34.876,2482.9,3565.3,4042.7,3375.6,4484,3485.9,-662.48,-3299,650.32,2691.6,-1242.8,-1592.1,314.07,-782.83,-4438.2,-4137.7,-1675.1,-711.29,-60.891,-104.03,13.622,879.43,93.311,-2269,-1967.1,1009,-547.89,-2817.5,-905.1,1008,-906.44,-2696.2,-873.49,-974.27,-2468.1,-3255.5,-5165.9,-6044.8,-5506.6,-4679.8,-3586.8,259.96,4293.1,2350.6,533.21,345.95,-1501.8,-5163.1,-4462.3,-1335.3,-990.18,-1162.6,-1759.2,-3364.1,-2898.4,-1721.9,-2519.5,-3864.1,-1645.7,169.23,-1257.1,38.679,2494.3,1919.3,-420.29,242.25,-172.1,-1503.2,-1440.6,-2630.8,-3172.4,-2138.1,-1327.9,-1570.6,-146.61,3335,596.47,-4468.3,-5710.8,-6635.8,-9047.4,-6800.7,730.01,3804.5,2480.1,1310.4,-242.4,-1384,-1757.9,-2630.2,-2643.7,-539.66,2817.5,2483.7,1810.7,3182.8,4115.7,1940.1,1196.4,1199.7,-30.245,-269.66,-18.567,87.583,1265.1,1264.1,-817.94,-1877.6,645.16,-64.555,-3301.4,-2107.1,-535.3,-2661.9,-5068.3,-3841.4,-2410.8,-2049.6,-1615.9,-2564.7,-1902.1,-87.415,-1489.9,-5066.9,-4983.7,-1842.5,-2898.7,-3414.6,-462.88,2116.1,-16.858,-2256.2,-1770.5,-2434.8,-3329.8,-3732,-5165.9,-5383.9,-4847,-5530.8,-5539.5,-1132.6,1640.4,-100.73,725.54,3057,1825.5,-2063.8,-1333.6,149.83,-1109,-1400.1,-2247.6,-2233.7,-1025.6,-2671.1,-6719.3,-9034.6,-8117.7,-10183,-11382,-6382.5,441.86,2750.7,4532.9,8285.3,7167.5,3744.2,2143.1,-410.56,-1725.5,-2061.2,-3078.5,-4817.2,-4276.1,-2073.2,-3833.4,-4072.1,-1301.4,30.979,-2294.2,-2458.8,-1131.5,-2634.5,-3558.6,-4234.8,-4219.6,-685.74,3797.6,5790.4,4791.2,6023.4,6027.2,2748.9,1780,2559.6,1648.5,151.13,2284.8,2715.6,1518.3,2297.6,2299.2,1432.6,1285.3,520.79,-1102.6,-1029.9,1505.4,192.58,-1974.9,-1634,-510.72,-2091.1,-3331.3,-1241.8,-732.49,-957.1,-903.14,-1662.9,-1294.9,-567.72,-1461.5,-3309.4,-2179.1,-840.5,-4099,-5464.5,-3657.8,-2571.3,-4074.8,-3319.9,-3677.1,-5900.3,-5714.9,-4082.8,-2954.4,-786.3,1093,232.45,4595.8,11615,15258,12196,12658,15209,14381,11369,11466,10314,8397.6,9010.7,8553.7,7881.9,7892.9,4627.5,-658.3,-1656.3,2102.1,1590.9,1031.9,6364.9,12507,13557,13064,13034,8920,5348.7,4888.5,4443,5043.9,5981.2,4474.2,1879.1,1878.3,3040.9,-143.97,-1208.2,563.02,-390.97,-5040.2,-7268.3,-7475.4,-9583,-11859,-13767,-14457,-12106,-11632,-12530,-11887,-11208,-13314,-16063,-12753,-7102.9,-7529.3,-13670,-16757,-18282,-20195,-21059,-22534,-22269,-19561,-17166,-17485,-15288,-11060,-12670,-13001,-9714.3,-8713.5,-13230,-17527,-19170,-22121,-23378,-22774,-21209,-16575,-13353,-15188,-16593,-13251,-9113.8,-8367.7,-5300.9,-562.35,-148.63,-4089.9,-4958.1,-5597.5,-8818.5,-10628,-11534,-12586,-11307,-9472,-7974.9,-5675.7,-535.34,1705.1,1629.9,3640.1,5195.9,3542.9,1027.6,2329.9,2037.5,398.52,1132.3,1450.1,4484,8222.4,8444.2,5717.6,6205.7,10146,8959.9,9015,13330,15308,11460,9411.1,10555,9282.5,7457.9,5935.4,4866.8,6834.7,6343.9,2732.1,686.64,4512.8,9151,9615.2,12399,15776,14010,8896,7436.3,5867.4,1925.7,-0.44337,-2597.3,-3483.4,1143.1,2953,-977.12,-3327.7,712.84,513.26,-2609.5,-1782.8,-1296.4,-6187.3,-10424,-9090.1,-8134.4,-7420.8,-5518,-5282.4,-3526.1,-2035.7,-4146.1,-8327.8,-7865,-5115.3,-8495.2,-10208,-8667.3,-9234,-12748,-12183,-9315.5,-9741.9,-8518.3,-5000,-1891.1,2621.5,3742.4,107.6,-2579.7,846.16,1617.4,-3326.5,-3870.6,-1239.4,-2529.7,-5029.3,-1752.3,1166.9,1103.1,2195.4,2211.5,2997.7,5972.8,6258.3,2848.5,2608.5,6656.1,3697.7,-1315.3,-736.7,1256.4,-1943.5,-3983.3,88.584,1410.4,784.52,2217,2742.8,5110.9,7275.8,5714.5,2691.1,4209.6,6364.7,1340,-293.96,2978.2,3167.8,-595.7,686.08,4412.4,4651.4,4940.1,4882.5,4139.7,5707.5,5870.1,2493.5,284.44,4065.2,2822.3,-2916.8,-2110,1441.9,347.33,-2084.6,2303.2,6029.7,4868.8,3082.3,-402.93,-2509.2,-2679,-3399.3,-2941.2,1585.2,6580.3,3333,1777,6178.2,8924.6,4790.1,2511.5,4868.4,3569.7,2437.6,3515.1,2994.6,4563.5,6190.7,3462.3,189.04,2773.7,4200.2,-1977.7,-4376.6,-1303.7,-1191.9,-5817.3,-4228.3,-982.54,-1520.8,-1233.6,-1822.3,-2559.5,-995.58,-1671.5,-5446.8,-6890,-2802.1,-5803.2,-12915,-12588,-8298,-9913.1,-12893,-9914.9,-7497.6,-6280,-5077.9,-6726.6,-6605.8,-4517.7,-6264.3,-9988.3,-8551.3,-5125.1,-10663,-14330,-11652,-9236.2,-12127,-12288,-8254.6,-7508.7,-7483.1,-7388.3,-8624.1,-7234.1,-6690.8,-9571.9,-11043,-5971.1,-5086.2,-11619,-12717,-8344.6,-6516.8,-8778.7,-5831.1,-2061.2,-2213.5,-1407.7,-1975.8,-3492.2,-2196,-2155.2,-5095.6,-5279,-274.72,-2694.5,-7475.1,-5452.3,-1677.4,-3421,-5478.8,-1812.3,-209.33,-471.78,474.58,-976.15,-312.4,1804.4,194.93,-2948.7,12.522,3287.4,-3485.8,-8358.6,-7391.1,-6676.8,-9302.8,-6950.3,-2713.9,-2377.2,-709.06,1487.5,905.15,2964,5114.1,3910.6,2860.9,6680.2,5756.8,267.23,1728.4,7151.9,6412,2570,5146.9,6820.8,5940.6,5751.8,3432.4,2650.1,4110,2774.5,-1224,-1097.6,4083.1,770,-2832.4,576.94,4245.1,1027,-656.08,2513.2,1851.1,467.63,710.12,-1331.9,-137.99,1688.4,-623.08,-3954.8,-422.47,3119.1,-2138.1,-3037.2,1572.1,1771.4,-2330.5,-482.29,2778.3,2246.1,2210.5,1384.8,677.05,2625.8,2679,-1296.6,-2955.8,2216.8,929.55,-4509.8,-1613.4,4203.3,3373.8,-26.994,3168.5,4942.3,4809.4,4427.5,1407,997.53,2250,531.15,-2252.4,-65.362,4742.4,264.84,-2450.2,1823.7,5126.8,1730.3,1322.7,5066.2,3948.1,2029.2,1400.7,178.88,2178.8,3812.7,752.49,-2967.4,544.68,3386.1,-700.57,-433.16,4093.1,4176.2,-829.57,535.93,3098.1,2034.5,2348.1,1019.9,-688.8,825.51,3.5804,-4289.9,-4689.6,1457.6,1037,-1874.9,1907.4,6828.4,4297.9,-722.77,523.71,590.65,-913.81,-1271.4,-3674.7,-3472.6,-1784.4,-3539.1,-6605.6,-3451.9,2164.7,-1803.8,-4282.2,-252.28,2204.2,-2072.6,-3005.1,-159.33,-1427.8,-2809.1,-4059.6,-5686.7,-3791.8,-2963.1,-6805.4,-9351.9,-4728.1,-3989,-9152.1,-7368,-1982.3,-1753.8,-5949.1,-4261.1,-3750.2,-6860.8,-7458.6,-8769.3,-8516.4,-5442.4,-5455.7,-8860.1,-8008.6,-2245.5,-5192.3,-9341.3,-5897.7,-1865.6,-4886.3,-7672.8,-5248.6,-6314.1,-8073.8,-7770.7,-9483.9,-7687.3,-4936.1,-6193.6,-8824.7,-5261,-1486,-6144.6,-6804.6,-2347.9,-1300.3,-6329.9,-6165.6,-3384.4,-4746.9,-5676.5,-5480.1,-6027.7,-3802.3,-2530.7,-5079.5,-6213.5,-873.24,-1590.8,-6764,-4380.8,1100.7,-152.4,-4532.7,-2534.1,-2009.6,-4173.5,-4744.1,-6568.7,-6175.5,-3347.1,-2962.9,-5767.4,-4163.3,1900.1,-1640.9,-4792.6,-710.47,2514.8,-1375.3,-3025.1,332.26,-730.53,-3421.1,-5316.2,-7577.4,-5556.5,-2583.3,-3441.3,-4033,1964.4,6343.4,1592.2,1058.1,5355.5,5394.8,1.2808,642.43,2522,585.31,-108.46,-1249.2,-1577.6,984.11,1522.9,-1781.3,-2321.6,4562.1,4441.7,234.01,2817.6,6996.6,3995.2,106.22,2642.5,2715.5,715.92,960.65,-159.26,1548.4,4455.8,3285.1,-449.76,1391.6,5904,2275.1,2356.7,8029.8,9588.2,3630.7,1615.4,4792,4508.2,3579.6,3522.3,2421.9,4816.4,6415.7,3546.3,1517.4,6993.5,8570,2772.4,3196.2,7720.1,5859,-725.94,36.86,1367.8,71.137,216.57,-397.41,1242,5659.8,6246,2150.8,1569,7131.3,4010.6,-654.75,1931.8,5403.9,1382.1,-2047.5,1094.3,1335.5,6.7481,567.89,-826.44,933.5,3660.4,1728.4,-1530.1,1646.5,5730.5,221.42,-2781.4,265.9,914.07,-4586.8,-5081.8,-2409.3,-3328.6,-3930.1,-4131.1,-4682,-1412.7,1091.7,-1326,-2974.2,2126.2,1770.5,-4500.5,-4417.2,-489.04,-2365.5,-7049.1,-4446.4,-2999.4,-4769.8,-4256.8,-5458.2,-5099.9,-2056.1,-2413.7,-6367.3,-5930.8,-702.98,-4944.6,-9429.2,-6729.5,-4297,-8622.7,-10692,-5890,-5091.7,-5503.3,-5022.3,-6847.5,-5397.8,-3019.2,-4960.1,-7514.7,-3533.7,-870.61,-7520.2,-9594.2,-5512,-5076.3,-10228,-9049.7,-4804,-5447.1,-5233.4,-5307.8,-5797.1,-2929.2,-2407,-5975.7,-6965.4,-1316.7,-3037.4,-8862.2,-7096.1,-2417.6,-4799.4,-8687.2,-4987.5,-2939.1,-3297.1,-2171.1,-2931.7,-2129.5,402.48,-1031.5,-5629.5,-5353.9,-954.52,-4640.3,-6304.9,-2191.9,18.88,-4131.2,-4571.4,-155.88,-198.85,-870.74,-397.32,-1637.9,147.33,1825.6,-380.49,-2998.3,933.77,1972.6,-4507.3,-4495.3,617.89,198.06,-4191,-1597.7,1289,393.41,860.84,249.92,-296.58,2033.8,2453.6,-1780,-2745.9,3028.5,221.62,-5183.7,-2950.4,1307.3,-1200.3,-3944.1,-383.27,978.24,671.28,1354.8,-133.76,1090.2,3621.9,1320.3,-3031.4,-1086.4,2867.1,-3030,-6236.4,-2445.7,97.979,-3926.1,-3628,68.626,-344.05,-91.48,242.99,-730.41,1591.4,2455.9,-498.08,-2627.5,2594,2493,-4200.4,-3710.8,1011.1,477.54,-3900.9,-679.71,2485.6,1791,2412.5,1035.9,876.56,2820.1,1642.4,-2448.8,-1400.1,5406.8,2100.9,-3250.2,-582.65,3554.5,480.33,-1805.6,2634.6,3195.5,2758.5,3435.4,1633.8,2637.6,4246.2,2286.2,-1175.1,1391.8,4696.1,-802.64,-2312.6,2269.7,3961,175.47,1692.6,4336.5,2871.5,2645.7,1973.6,1096.7,3320.4,3829.3,201.72,-1524.8,3772.9,2918.8,-2809.7,-1331.5,3437.9,1695.8,-2077.5,1467.7,3313.3,2537,3338.3,1408.7,865.61,2532.8,1222,-2688.7,-1536.3,3701.5,-993.55,-4600.7,-311.02,2814.7,-1640.9,-2842.7,1362.4,441.25,-468.53,-275.69,-1813.7,-246.53,1007.2,-1783.6,-5244.9,-1624.2,247.13,-6554,-7347.1,-2097.5,-809.69,-5123.2,-3337.8,-754.28,-1710.1,-1505.9,-2649,-3461.2,-1121.1,-1449.3,-5951.9,-7077.3,-1477.4,-3951.3,-9553,-6686.8,-2004.7,-4288.3,-7205.9,-3859.4,-3278.7,-4731.2,-4276.9,-6186.6,-5088.9,-2488.7,-4421.2,-8560,-6172.3,-1514.8,-6724.5,-9252.8,-4747.3,-2295.4,-6506.6,-6727.2,-2711.2,-3093.5,-3856.8,-4607.2,-5964.6,-3466.2,-2590.6,-6193.6,-7919.5,-1907.4,-445.36,-6387,-5738.4,-244.19,-327.28,-4433.6,-1414.8,420.08,-1838.8,-1846.7,-3007,-3508.3,-1011.8,-1459.1,-5263.3,-4559.9,1984.1,-712.79,-5030.5,-1885.7,2112.5,-1024.6,-3597.6,-73.128,-262.61,-1552.7,-1376.1,-3265.6,-2591.3,-705.54,-2762.6,-6380.6,-3102.2,1599.8,-2948.2,-3931.5,1303.5,2855.8,-2245.8,-2110.1,772.88,-925.09,-1776.2,-2751.2,-3778.1,-793.99,535.68,-2849.1,-5100.2,451.52,837.26,-4229.7,-1847.7,3275.7,1643.1,-2941.2,-248.4,818.37,-1594.5,-1402.6,-2608.4,-2298.8,349.51,-447.41,-4426.8,-3227.4,3079.7,166.98,-2928.7,995.9,4260.7,406.94,-1584.6,1455.1,366.64,-1510.3,-2002.3,-3660.8,-1524.1,330.18,-1827.3,-4386,-24.498,3809,-1079.9,-1237.1,4064.6,4344.9,-1103.6,-96.141,2572.8,1052.1,458.08,-1339.2,-2583.4,216.02,1202.8,-2312.1,-3456.3,2592.6,2182.4,-2597.2,-398.24,4619.6,1949.8,-2756.6,-527.4,93.06,-1910.6,-2103.2,-3698.7,-2085.7,1462.7,580.75,-3353.2,-1247.4,4610.8,462.64,-2166,2609.4,5201,1.9443,-1483.7,1558.6,1013.4,25.587,-641.68,-2134.5,1.3064,1702.2,-1228.2,-3941.1,1119.2,3901.9,-1150.7,-673.95,4895.5,4558.8,-1002.4,1.7418,1350.7,-456.85,-860.79,-2652.4,-2758.1,471.64,1045.5,-2119.1,-2259,3661.1,1795,-2628.2,-120.6,3481.9,-232.17,-4114,-699.75,-407.57,-2291.1,-2080.2,-3652.1,-2065.5,531.68,-928.44,-3955.7,-442.72,4636,-163.1,-2667.3,1374.3,2815.9,-2651.6,-3091.3,-119.72,-1320.9,-1780.2,-2496.9,-4167,-1629.7,-183.91,-3205.3,-4366.8,2207.4,3554.9,-2362.8,-1140.8,4232.2,2533.6,-3299.6,-1498.5,45.257,-1854.9,-1665.5,-2380.5,-1853.2,790.69,666.56,-2853.1,-1863,4242.4,696.17,-3352,299.51,3622.7,-574.38,-3365.4,-851.37,-2008.2,-3585.8,-3304.7,-5025.6,-3291.9,-96.333,-1567.4,-4391.7,-18.058,4097.9,-1849.7,-3363.8,1391.9,1756.6,-4182.2,-3884.3,-1510.6,-2929.9,-2676.5,-3490.6,-4657,-2009.5,-1588.3,-5659.4,-7158.8,-879.01,-1516.1,-6690.4,-5138.1,-808.43,-3433,-8228.6,-4923.1,-3658.1,-5391.8,-4615.6,-6670.2,-7112.4,-4312.6,-4814.6,-8488.7,-6704.5,-709.97,-5208.2,-9109.4,-5385.3,-2618.7,-7756.9,-9693.4,-5569.9,-5891.5,-6653.9,-6552.6,-7861.4,-5596.6,-3326.2,-5833.3,-8451,-3594.2,-1398.1,-8007.3,-8451.6,-3210.5,-3235.8,-8436.4,-6125.6,-2824.4,-3496.3,-2740.1,-3233.8,-3620.1,-983.41,-198.6,-3647.5,-4409,1778.4,-358.88,-6226.5,-4267.6,-2.1152,-2916.3,-5926.2,-2503.7,-1513,-1516.2,230.32,-864.03,340.83,2827,1454.8,-2286.6,-127.01,4253.6,-1553.4,-4783.3,386.93,3282.4,-1051.4,-1319.2,2202.3,1785.5,1914.2,1882.4,922.11,2928,4272.6,1759.7,-48.009,5799.5,6769.8,-0.11889,128.45,4811.7,3664.1,-1591.8,734.69,3026.4,1777.6,2938.7,2328,2156.5,4148.1,3650.8,723.48,1269.5,7390.9,3848.2,-1519.2,1225.9,5058.1,1469.9,-1107.7,2944.1,3458.1,3015.9,4268.2,2940.2,4642,6890.7,4620.9,807.85,3466.2,6446.2,-838.86,-3395,1354.5,3042.6,-1490,-449.48,3270.8,3351,4346.1,4066.6,3024.5,5491.9,6572.7,2892.5,704.68,5476.7,3636.5,-3865.8,-3844,945.13,5.679,-3765.5,155.33,2790.4,1956.1,2598.2,772.23,568.01,2565.5,1335.7,-2697.4,-1308.3,4774.6,109.09,-4991.2,-2364.1,383.94,-3409.8,-4636.6,-574.87,-448.88,-449.69,322.95,-1013.6,1297.3,3853,668.01,-3607.1,-177.29,1351,-6325.3,-8503,-4038.9,-2659.3,-6856,-4960.5,-1022.8,-498.78,158.94,-1482.5,-3154.5,-1020,-348.35,-4097.1,-5842,-176.91,-1742.1,-7749.6,-6274.4,-1854.4,-3976.2,-7093.2,-3058.4,-1553.5,-2676.4,-2726.6,-5747.1,-4904.3,-2491.6,-4044,-7891.2,-6301.6,-1915.3,-7673.6,-11061,-6923.8,-4435.2,-8248.9,-7607,-2763.6,-2811.5,-3310.7,-3372.7,-4372.7,-1895.7,-1111.5,-5257.5,-8609.7,-3845.4,-2296.9,-4785.7,-6832.9,-4989.5,-4188.2,-8296.1,-10356,-3641.4,-4144.3,-10294,-7133.6,-851.01,-2983.6,-8687.8,-5228.2,-3454.2,-5277.1,-4371.3,-6852.5,-8411.3,-6400.9,-6318.5,-8578.2,-4206.3,3812,-1446.7,-6080.6,-1891.4,2193.4,-1987.4,-3759.5,523.98,-583.51,-1691.8,-1039.1,-2387.4,-33.983,2116.7,-1073.5,-4632.9,-260.26,2162.3,-4661.7,-4840.5,1990.3,4775,75.841,760.01,1340,-3590.5,-5596.5,-6892.4,-6406.7,-1189.4,1719.1,-1196.3,-2643.7,3783.8,4331.2,970.41,4771.1,11169,9127.3,3877,5175.2,3940.2,1123.5,566.5,-2190.8,-507.46,3750.4,4108.4,2000.2,5880.2,12166,6984.3,4100,8187.3,9701,3479.9,2323.9,6074.8,4721.1,3518.1,3610.3,2744.5,6216.6,8253.4,4972.8,1849,6331.6,7793.9,2407.6,4056.4,9864.5,8538.2,2412.2,3892.4,4741.3,1960.4,649.22,-917.1,-169.35,3271.3,3483.7,-376.83,-620.99,4684.5,1108.7,-3988.9,-1188.4,3414.3,764.65,-1446.4,3350.4,3660.8,1378,802.2,-2800.1,-2189.1,2073.9,1605.8,-2414.6,-1242.7,164.35,-7127.7,-8246.5,-3327.7,-2481.9,-8476.4,-7124.6,-1285.6,-1727.8,-1785.3,-1874.4,-2903.1,-812.18,-1009.2,-5515.9,-7683.4,-1076.7,312.37,-5626.7,-4474.2,234.23,-1345.2,-5905.7,-2706.5,-2192.6,-5829.7,-5575.2,-7039.2,-7443.7,-4902.8,-4662.7,-7409.8,-6699.2,-1361.7,-6125.7,-10899,-7310.6,-4662.1,-11159,-14009,-9238.3,-9579.5,-9793.8,-6425,-6263,-3463,-1070.4,-4163.8,-7126.1,-2381.9,5.1623,-7413.3,-8062.7,-3147.9,-3689,-8131.3,-5113.8,-2199.7,-5250.9,-5766.4,-5962.5,-5869.3,-2632.8,-1458.3,-5259.7,-6156.8,-667.5,-2948.9,-9101.1,-7546.2,-3103.7,-5357.9,-9595.8,-6025.2,-4257.5,-4984.3,-4795.9,-6689.4,-6937.7,-5222.2,-5265.2,-7243.5,-4285.3,2659.2,-753.22,-3850.8,-166.48,2407,-3411,-4792.1,517.92,1077.7,495.97,-572.59,-3446,-616.53,1420.3,-1971,-5458.2,-1892,-1499.6,-10975,-12895,-6266.1,-4111,-6818.9,-2602.6,1703.8,1486.9,3032.8,2054,903.06,3173.8,2317.1,-2396.6,-3098.3,2520.3,-723.39,-6012.9,-2759.3,2064.7,17.19,-1668.6,2768.3,3943.8,2324.7,2095.7,-187.58,450.19,1254.5,-908.56,-3235.8,688.83,7564.9,3956.1,3396.6,8344.2,9059.8,3246,3690.6,7718.4,7809.4,9074.6,9765.3,8955,11339,11176,5568,1734.6,6509.2,7537.8,1851.2,4508.1,11667,9782.4,2728.2,3453.4,4313.8,2799.2,3404.7,2793.6,3954.5,7114.5,6492,3477,4255.5,9249.5,5019.2,87.544,3506.8,7208.4,1288.8,-3403.4,-65.342,1546.6,3559.5,6543,6676.7,8686.8,10490,7373.5,2976.9,5638.3,7735,631.8,-766.16,3672.9,3660.5,-2155.9,-892.02,2211.1,162.77,8.8108,-260.63,-932.69,1848,2536.2,-955.95,-2552.1,2943.7,1872.3,-4192.4,-3214.3,791.92,-1579,-7068.7,-6163.2,-7258.2,-9544.1,-8388.1,-8828,-7069.4,-4202.5,-6936.5,-11482,-9788.7,-5628.3,-11073,-13775,-8527.5,-4133.4,-9204.6,-12393,-9217.9,-9262.2,-9662.9,-9474.5,-10340,-8826.1,-8760.1,-13023,-16789,-12588,-8473.3,-12730,-12261,-6525.2,-4985.3,-10512,-10989,-10138,-13296,-14207,-14513,-13253,-8383.7,-6562.3,-8039.5,-8099.4,-3018.5,-6320,-12784,-11660,-7651.9,-7997.9,-7146.4,374.48,3498.5,2541.2,1640,-1549.7,-1965.6,474.45,-692.29,-4634.8,-2276.5,2717.3,-2705,-5921.3,-1330.5,1833,-2962.4,-3757.1,-148.28,-349.65,466.51,2752,2821.3,4473.8,4163,-872.98,-3763.3,1448.7,3016.7,-2187.7,-1188.4,3886.7,3541.8,-634.75,2264.2,4318.7,2707,2777.4,1058.4,172.15,2327.9,1523.1,-2578.3,-2040.1,3874.5,544.14,-3409.8,1153.2,5386.5,591.73,-3266.6,-505.58,-1802.4,-6873.5,-12512,-21321,-25179,-22035,-17809,-11817,320.82,11307,8761.2,6979.4,10612,9092.4,1863.8,1569.8,4852.7,3637.8,1792.2,-75.269,-1744.8,815.7,2499.2,-998.54,-4129.1,1467.8,2856.8,-1605.4,1437,7483.4,7295.7,5033.1,9593.9,10802,7903.5,8122.9,7995.9,8759.5,11110,9117.1,4501.2,5406.2,10783,6574,2699.7,6394.1,9413.8,7145.7,7796.3,12329,10388,7487,7316.6,6727.3,9470.1,10555,5803.1,861.11,3105.7,4781.3,-1954.2,-2631.3,2947.6,3789.5,-1063,-1086.9,462.11,-1842.3,-2244.9,-2876.2,-1604.9,3396,5321.4,2192.8,743.25,4509.3,1011.4,-4819.1,-567.29,5374.7,1991.6,-2916.7,-2747.1,-6248,-10598,-10448,-10696,-7162.7,-151.53,2209.3,-931.37,-1142.5,3284.4,324.48,-2033.7,-2045.1,-6384.3,-14912,-14779,-5967.6,-620.76,4360.5,6532.1,3245.7,1679,-327.49,-5534.8,-9605.1,-7039.4,-6602.9,-12229,-10908,-4564.1,-2996.6,-5706.1,-2403,-1168.7,-4170.8,-4497.7,-5861.6,-6150.2,-3037.1,-3383.6,-8137.5,-9241.4,-4107,-6605.3,-11135,-8966.3,-7459.6,-12066,-14326,-9305,-8082.7,-8735.7,-6487.5,-8118.1,-7966.9,-6429.2,-9067.1,-12929,-9868.4,-4836,-9478.3,-10478,-4738.3,-3949.7,-9964.5,-9073.1,-4478.7,-4781.3,-6243.6,-6076.9,-6117.4,-4113.9,-3730.9,-6523.6,-7360.5,-2563.5,-2198,-7542.5,-6266.1,-1025.4,-2560.3,-7686.6,-3739.6,-270.85,-3472.4,-4817.6,-6696.4,-5762.3,-971.92,126.06,-2314.6,-946.17,5128.6,-1312.2,-7106.3,-3422.4,-250.95,-4893.8,-9434.8,-6090.8,-3562.4,-1387.7,1365.3,1195.6,2419.2,2568.2,573.9,56.51,5929,8193.2,-584.95,-4835.1,-2036.7,-935.34,-5626.1,-2829.7,3460.7,3616.7,4268,5604.2,4698,5616,4816.5,-339.83,-3761.7,666.81,-177.41,-3449.7,3343.1,11689,11919,7546.1,7656.7,6960.4,4403.5,5009,4101.8,6079.6,10154,8588.2,4031.9,5329.2,11103,5612.3,1125.5,4363.5,7621.1,5050.4,6426.5,11815,9503.4,7078.8,6350.3,4020.1,4692.7,4960.6,1417.8,-1033.9,4277.8,6414.6,-328.87,137.12,6844.5,6647.6,286.93,2044,4182.8,1225.7,570.5,-441.4,-587.57,2328.5,2415.1,-1660.1,-3299,1863.8,-744.38,-6236,-3125.8,2040.1,458.77,-1786.9,937.73,-1630.8,-6730.3,-8923.4,-11620,-6966.8,505.98,2205.7,-61.194,3122.8,8191.8,1269.2,-3609.4,-478.05,314.55,-6879.3,-9560.2,-6778.3,-6025.3,-4074,-954.73,566.67,2066.1,845.17,-3647.6,-6010.7,104.39,2052.5,-4005.4,-2689.3,3078.6,742.11,-6594.6,-4209.5,-1304.1,-1741.2,-303.85,-655.68,-2499.7,-2922.2,-4951.6,-8801.5,-7884.8,-1358.7,-3360.8,-6733.2,-3327.2,-263.34,-5543.2,-8318.2,-3351,-3882.5,-6474.8,-7724.7,-9789.2,-8691,-8080.2,-10585,-12415,-5333.8,108.04,-5811.5,-6484,-2501.2,-2021.4,-7025.2,-7140.6,-4635.7,-5768.5,-5842,-7000.2,-8955.9,-6454,-4870.3,-8537,-11070,-7264.7,-8822.5,-14497,-11989,-5128.8,-6081,-10414,-7230.6,-5207.9,-5676.9,-5277,-7684.4,-7848.1,-6002.9,-7479.5,-9746.8,-6589.1,27.018,-3195.4,-6109.6,-1439,1730.3,-3397,-5048.8,-839.33,-718.48,-1245.7,-1261.6,-3513.3,-1312.4,1283.9,-485.78,-1973.5,3513.7,6689.7,146.76,-625.84,4239.5,5802.8,2969.3,5663.2,7946.5,4872.9,4946.4,5495.7,4308.5,6804.3,6221.8,1604.1,2154.6,9285.6,7507.2,1848.8,3264,6767.7,3793.7,806.61,5534.5,6495.9,3666.6,3444.4,2524.9,4796.5,8309.6,7424.5,4569.8,7223,11165,5384.7,2522.6,6876.3,8213.7,2562,1446.3,4679.1,3239.8,1390.2,1099,707.84,3402.3,5068.4,1619.7,-1496.2,2194.5,2711.8,-3472.9,-2815.3,1791.1,486.71,-3864.7,-1243.3,767.46,-172.39,-33.635,-3414,-5416.5,-3699.1,-4355.2,-8978.1,-8816.8,-1901.7,-3304.3,-7050.7,-4108.3,-1096.3,-5775.1,-9144.8,-5928.8,-5822.3,-7105.3,-6491,-7470.2,-5010.8,-2372.6,-3921.7,-7860.5,-6354.5,-3411.5,-9659.6,-12439,-7293.6,-3576.7,-6699.2,-5382.7,672.87,1490.5,-7.7546,-2164.1,-4124.3,-1555.1,432.12,-1831.6,-3194.3,2205.2,1983.6,-3862.2,-2335.3,1788.6,-1054.4,-6423.9,-3377.7,-1471.7,-2412.3,-2135.5,-3368.6,-3650.8,-1074.7,-1244.2,-4621.5,-2926.5,3167.2,-589.88,-4589.5,-615.39,3303.8,-702.03,-2937.9,-167.85,-1526.9,-3097,-2120.7,-2957.1,-1410.8,1163.6,-588.06,-3862.8,-723.82,1792.1,-3761.2,-3612.9,948.05,2054.4,-2305.4,-1801.7,136.22,-1448.9,-780.36,-363.27,-60.767,3766.6,5617.7,2039,423.9,6419.2,5137.3,-964.18,741.01,5236.3,3391.3,-467.02,2527,3623.6,2991.2,3791.8,1856.3,2619.6,5102.5,3589.2,-771.54,-348.33,4726.7,1217.1,-1136.9,2970.3,5012.5,583.47,238.32,3992,2846.4,2075.2,1664.2,-426.94,1378.4,3026.9,313.96,-2439.4,1698.7,2744.4,-4356.2,-4169.2,1260.3,213.86,-6076.6,-4611.3,-2960.5,-4804.6,-4047.4,-4485,-4364.2,-2171.1,-1654.3,-4213.9,-4750.2,310.1,-2943.9,-8378,-5520.5,-1790.5,-5373.8,-8512.3,-4639.8,-4188.8,-5184.2,-5195.8,-8432.4,-9069,-7895.6,-8989.2,-12045,-8991.5,-4343.9,-10771,-13223,-8005.3,-4916.9,-8827.4,-7826.1,-3134.2,-3591,-4590.2,-5266.8,-6011,-2701.6,-1714.2,-5945.1,-8806.6,-3521.7,-2785.1,-7743.6,-6119.7,-70.816,-188.41,-5173,-3006.2,-1811,-4546.9,-5044.6,-5799.4,-4770.8,-1605.4,-2503.9,-7131.4,-6717.8,-239.03,-3660.5,-8083.2,-3685.2,953.08,-2278.5,-4498.8,-559.63,-285.33,-1688.4,-1704.9,-3123.1,-615.68,2061.1,578.96,-1656.3,1785.7,3858.4,-3440.6,-5407.2,-180.28,1955.3,-2366.1,-571.68,3776.9,2951.2,2422.3,2154.2,1535.5,3839.7,4239.7,1196.8,201.06,6002.2,5889.5,885.47,3285,7969.3,4717.9,-1213.4,477.8,2083.4,2170.1,3841.2,3092.7,4654.8,7211.3,5129.3,934.29,2695.7,8853.8,4848.8,2309.2,7297.5,9825.2,4492.3,2708.1,7439.3,7156,6070,6446.9,5158.8,6587.4,8382.1,4910.3,239.09,3548.4,7138.1,2275.8,2340.8,6917.9,6038.7,388.45,1971.4,4584.5,2410.5,2055.6,1357.8,1352.6,4146.7,3251,-2392.8,-4723.2,1650.9,837.41,-4140.6,-1887.2,2167.8,-983.88,-4263.6,-377.87,500.51,-836.61,-641.9,-3582.4,-4965.1,-3403,-3767.6,-5639.6,-2467.7,2001.8,-3031.1,-5345.6,-677.62,1163.6,-4986.9,-6866.5,-4167,-5262.8,-6470.4,-6402.1,-6703.2,-4078.3,-2747.9,-5287.3,-6953,-2085.2,-721.13,-7058.6,-7390.8,-2818.2,-3694.7,-8911.8,-7535.7,-6271.9,-7291.8,-6723.3,-7622.1,-8125.1,-6462,-7612.9,-11057,-10504,-4482,-7184.4,-11230,-7841.5,-3597.5,-6595.1,-7419.3,-2552.3,-3155.8,-5446.8,-6322.2,-8582.5,-7089,-4580.5,-6631.7,-10073,-6928.8,-2560.8,-7812.3,-9265.1,-4575.3,-2728.1,-7316,-6553.5,-3198.4,-4174.6,-4329.6,-4362.9,-4937.2,-2188.8,-1283.9,-4846.3,-7006.1,-1259.3,-635.9,-5401.1,-3304.9,1485.4,-98.358,-3947,-914.55,-71.007,-1196,-57.483,-1662.6,-1548.7,625.53,-508.35,-3675.3,-1806,4291.1,267.72,-4067.5,-460.32,3225.8,-780.14,-1822,2971,3197.3,2128.2,1527.7,-191.93,2291.1,4600.4,2632.2,401.75,4898.3,7523.9,394.68,-1031.9,3702.8,2932.2,-3605.7,-3287.5,-500.91,-2695.3,-2991.5,-1274.7,501.9,4494,4680.3,-393.27,-1528.2,4865.7,3299.2,-2378.4,-904.33,3116.4,1164.6,-2325.6,1767.3,3490.4,2305.8,2628.5,1187.5,2248.4,4392.9,2760.1,-1055.7,1157.7,6154.1,1220.9,-939.6,3341.7,4913.1,-220.76,-1579,1195.6,236.82,-427.37,175.77,-227.24,3029,4918.7,2155.9,-407.8,3809.5,5294.1,-994.64,-1284.4,3079,1480.7,-3730.2,-449.32,3488.4,3274.6,4432,3175.3,2133.9,3670.1,3464.5,-15.179,142.44,5672.6,2908.2,-1902.6,1084.4,5334.2,1596.2,-2024.5,1152.4,754.58,-902.82,-251.18,-1834.5,74.387,3458.8,2967.4,513.55,3214.4,6538.2,-722.34,-3796.2,681.1,2226.8,-2960.8,-2506.8,1787.2,593.08,-205.94,-1144.2,-3714.2,-3104.1,-3094.6,-6394.1,-7444.5,-498.32,984.35,-4554.3,-3384.7,1126.9,-706.43,-6470.1,-4334.3,-3058.4,-6209,-7283.9,-9097.1,-8863.9,-5656.4,-6199.9,-9400.5,-7250.7,-1824.5,-7573.2,-12607,-8707.1,-4665.5,-8144.8,-9506.6,-5428,-5947.2,-6428.2,-5256.1,-6469.7,-5642.4,-3762.7,-6130.8,-9154.6,-5069.5,-1292.3,-6966.1,-8675.6,-4308.8,-3532.8,-8850.5,-7465.2,-3827.6,-4641.7,-4332,-4982.4,-5742.4,-3520.3,-11090,-12736,-11130,-9031.8,-7442.9,-5761,-4089.7,-3438.4,-4364.8,-4723.2,-5522.3,-7408.5,-9954.4,-12593,-13724,-14607,-16036,-16965,-14843,-9583,-7099.1,-6840,-4816.2,-4738.7,-6950.4,-7943.3,-7054.1,-6177.5,-6213.1,-6003.2,-5944.9,-6017.7,-5972.8,-7050.2,-8547.2,-9147.7,-8277,-8090.3,-7846.4,-6451,-5658.2,-5561.3,-4891,-3834.3,-3882.7,-5629.7,-8073,-9864.3,-9210.3,-7832.3,-8175,-9443.1,-8963.8,-7236.7,-6896.2,-5163.1,-3572.2,-2408.8,-2044.2,-2840.2,-3798.5,-6137.5,-9149.6,-11859,-12276,-9432.5,-6760.6,-5682.8,-5282.8,-5099.9,-5191.8,-4960.8,-3950.5,-3923.4,-7546.4,-11795,-12142,-12793,-13910,-13808,-13396,-11646,-10563,-11592,-11524,-10881,-8746.6,-4171.3,1178.5,4331,4251.6,-498.08,-4612.8,-5002.8,-4529.8,-2906.1,-4100.1,-10170,-14566,-13419,-4451.9,9522.7,20395,17828,9404.2,6279,6989.3,4188.1,-1217.4,-3168.9,-4820.2,-4327.9,2144.3,7726.7,12278,15068,12193,6774.4,3285.1,1999.9,3248.6,8965.4,16058,20578,20905,17385,12696,7020.3,3009.1,6007.8,13627,18363,18712,16159,15548,19272,23937,27224,28792,28253,27527,23842,19540,13858,7097.4,3834.9,3373.5,8003.1,16485,20092,18974,17900,18124,19070,17868,17220,17000,17102,19150,18606,11800,6345.3,9026,12399,11595,10081,9157.4,4778.4,-3028.7,-9784.7,-20881,-29273,-25592,-13750,-2883.1,5130.7,7237.5,626.77,-6857.2,-12382,-17570,-18071,-17549,-17880,-15158,-13450,-11298,-10669,-8425.6,-4202.6,-1499.8,-2435.1,-2751.7,-1188.9,-1297.6,-3833.8,-9463,-16635,-17700,-10960,-2992.9,1218.1,5502,6660.9,2551.4,-372.11,-2237.8,-5536.8,-8843.9,-7593.2,-4659.5,-2751.5,-2551.3,-3860.1,-1781.4,-116.51,-4594.3,-9692.7,-11680,-12674,-11741,-8926.9,-5331.6,-5912.4,-10098,-11664,-8516.1,-7397.7,-8086,-9542,-14234,-19748,-21775,-22304,-21996,-20955,-20968,-26308,-29483,-31296,-34206,-36794,-36279,-34010,-32912,-31827,-31408,-32021,-32437,-33793,-35478,-36286,-34865,-34627,-36180,-36476,-35101,-33180,-29559,-21541,-14099,-8820.5,-4286.6,-1980.3,-987.99,487.31,689.49,-1242.2,-2009.9,51.1,-1615,-2274.9,725.76,1712.3,756.87,3235.6,8301.3,13196,18047,25143,30245,28674,23322,16545,14074,17784,23350,24476,25084,27579,30065,31901,33339,35182,34746,34497,36454,37740,37242,34543,29771,24932,23597,20843,18227,18814,18600,15521,13284,14882,15187,15124,15707,12734,8577.3,7741.1,6131.3,4143.7,5786.5,8729.9,5750.5,330.43,-3336,-5607.8,-9294.4,-8826.5,-3283.3,-364.05,1799.5,3220.6,2192,2023.5,1091.9,-2564.8,-5583.3,-4994.5,-4635.2,-7265.7,-9066.6,-9438.2,-10952,-13238,-12131,-9391.7,-6406.1,-5264.8,-10981,-15389,-11799,-5989.5,-280.87,4676.6,9212.4,9955.3,8317.4,7418.4,6843.3,4492.1,2743.5,3905.5,4478,4018.2,3994.6,2857.6,3278.3,4630.8,3694.3,1084.1,363.67,-587.68,-3874.7,-4122.8,-2700.5,-2464.1,-2093.3,-586.08,1956.8,1803.2,1826.3,2951.7,2900.4,3347,4238.3,2228,-410.2,-877.18,-3235.2,-6688.5,-6424.3,-3080.2,-2434.8,-4721.7,-5405.1,-7379.9,-10535,-11561,-11282,-10435,-8251.7,-6950.4,-8941,-10339,-8786.7,-8706.8,-9436.2,-11793,-14111,-16945,-18058,-14747,-12563,-13368,-15430,-15549,-12385,-8618.1,-7271.4,-8257.9,-8197.9,-7955.7,-10754,-11867,-11370,-12280,-15255,-17211,-18215,-18155,-17497,-17481,-15713,-12322,-10950,-10660,-9057.3,-6925.8,-8324.8,-11774,-12011,-9645.2,-8531.4,-9220,-8523.8,-10083,-13553,-15096,-16413,-15726,-11452,-7250.2,-3614.9,-953.9,141.74,-1646.9,-2664.2,-833.49,135.29,-999.83,-1018.2,-713.84,-876.83,-486.03,-1762,-3972.4,-2823.7,294.91,4218.5,7850.6,10851,12450,11299,11262,12298,11242,9230.8,8409.5,6459.3,5001,4901.6,5023.9,4866.2,3806.2,396.37,-2510.9,-2366.3,749.44,5864.9,11451,18144,22651,20861,16402,13259,8699.2,3916.7,3067.5,4351.5,5019.9,5119.4,3951.2,2553.9,2820.5,4709.8,6452.7,7687.8,6594.6,2836.6,-2000.9,-4806,-2049.4,2994,6665.5,6511.6,4594.7,4913.4,5758.5,6736.6,6811.5,6190.3,5142.2,5231.5,6479.2,6905.6,4987.1,2459.2,96.762,-2823.1,-3480.7,-1204.1,1280.4,3140.1,2266.9,-395.12,-2864.8,-5093.5,-6941.9,-10050,-9333.9,-3444.1,4221,8697.6,8950.3,6403.7,1972.4,-1329.1,-1001.8,260.93,812.71,90.469,-1701.1,-2766.3,-2341.7,-4000,-6795.3,-6083.3,-2758.6,401.86,3804.8,7083.6,5508.3,518.17,-4525.1,-8253.8,-7924.4,-5210.8,-4429,-4454.4,-3700.4,-2689.7,-2325.3,-1208.3,686.89,1185.9,-445.5,-1778.1,-3331.1,-4957.5,-5252.2,-4220.8,-3555.9,-4140.5,-5955.6,-6142.3,-5854.8,-5354.8,-3711.1,-2013.4,-1318.1,21.315,1873.2,1652,266.03,-483.56,-811.03,-877.25,-967.65,-1679.9,-2961.6,-5356.3,-8847.3,-10579,-8403,-4311.6,-1447.8,-1418.5,-4269,-4679.6,-3611.7,-908.72,2133.7,2975.3,1466.9,-954.74,-2826,-3617.6,-4102.9,-3455.5,-2159.5,-2279.6,-4602.5,-9268.9,-13087,-14404,-13183,-7503.5,-2170.1,165.27,814.2,-98.739,-2318,-5127.7,-7179.2,-9614.6,-12653,-13698,-13849,-12508,-8535.2,-6000.7,-7177.1,-7530.9,-5620.9,-5985.2,-5261.1,-3102.1,-131.72,2301.5,1705,467.94,-513.37,-562.72,-117.03,427.38,1504.6,1783.3,-15.233,-1240.2,-1209.1,-1478.9,-2592.7,-3493,-2804.9,-1091.1,307.18,1306.8,1431.4,1125.4,1063.6,1016.6,10.774,-1766,-3746,-4184.6,-1904.5,751.63,367,40.552,-781.76,-1225.7,1272.6,4255.3,5697.6,6052,6686.3,6762,5098.7,2955.1,850.62,-1930.9,-3730.3,-4533.6,-4113.9,-4108,-6273.4,-5710.5,-3844.6,-2153.4,762.56,3754.1,5649.7,7788.2,9496.4,8375.6,5484.7,3411.1,1152.9,-2187.5,-3629.1,-2306.3,16.792,2593.6,4097.2,3974.6,3193.5,2155.1,1061.8,475.35,158.85,-1535.2,-5627.3,-8906.1,-9501.4,-10259,-10270,-7645,-2845.8,635.27,2369.8,1734,-497.95,-652.4,789.26,553.44,381.28,-565.55,-2658.5,-4194.5,-2932.1,-373.48,-209.66,-781,-356.9,722.76,2357.8,3242.7,1730.4,-544.1,-1527.4,-2532.4,-3630.6,-2975.7,-689.7,984.82,489.37,-1480.3,-3414.3,-4532.1,-3664.8,-2084.9,-1460.2,236.23,1183.9,811.32,326.14,140.31,-1143.6,-3852.6,-6155.4,-6456.9,-5284.4,-2902.7,-887.61,-1384.1,-2373.2,-2251.2,-3705.8,-3907.2,-1945.3,-915.31,-931.2,-577.97,-560.25,-1630.8,-1435.2,-5.1299,-250.53,-2118.7,-3656.8,-4321.1,-4159.5,-3852.8,-2992.2,-1893.3,-2111.5,-4096.9,-4327.3,-3220.9,-4349.5,-4793.8,-2930.9,-1049.7,968.47,1408.2,538.74,1288,1909.5,622.06,-1372.5,-1700.6,-726.28,1017.1,1015.2,-734.14,-956.87,-135.3,-207.85,173.55,397.16,-888.74,-1844.9,-827.36,-113.13,385.75,-15.9,29.519,633.57,1129.4,3027.1,4779,5496.5,5911.8,4825.3,2282,2190.5,1511.7,-1103.3,-1062,1415,4980.6,8664.5,12696,13339,10787,8698.8,7323.3,5911.2,4922.5,4865.8,5948.1,6977.6,5249.3,1828.6,-872.04,-479.1,1838.4,3285,3860.9,4046,3257.4,1952.4,1032.4,-100.58,-1969.7,-3418.1,-4033.8,-3993,-2821.8,-1764.3,-1466.5,-2265.9,-2169.7,-1807.8,-2079.2,-2834.5,-3380.1,-4147.3,-4992.8,-6384.2,-6519.2,-6126.1,-6395.3,-5749.7,-4779.9,-3774,-2462.2,-3313,-5583.1,-7356,-7829,-9036.8,-10047,-7787.5,-5157.3,-4889.8,-5367.6,-5250,-4969.7,-5121.6,-5761.2,-6573.7,-6838,-6774.9,-7392.5,-7084.4,-5773.5,-5240,-6220.1,-7662.3,-9194.3,-10817,-11259,-11410,-11548,-10918,-10434,-9845,-9257.5,-7083.1,-5415.4,-5172.1,-4195.2,-3810,-5485.5,-7251.3,-8696.2,-10410,-11198,-11645,-11744,-10706,-9005.6,-8277.6,-8173.3,-7325.4,-6201.1,-6212,-5066.6,-3199,-3237.5,-4814,-6537.8,-7441.7,-8475.5,-9902.2,-10602,-10580,-9107.8,-7571.1,-7089.6,-6430.3,-4990.7,-3467.6,-2297.1,141.99,2408.1,2087.6,288.58,-1377.7,-3724.4,-5734.3,-6053.4,-5925.7,-4902.8,-2563.4,-1291,-1100.8,-280.37,1473,2348.3,2806.6,4329.1,5767.1,5081.9,2939.3,1804.7,581.47,-416.81,-231.75,-54.559,887.12,2391.1,2864.4,2725.2,4297.1,7204,8180.5,9485.6,11202,11156,8679.7,6718.5,6690.2,5526.5,5165.8,6090.5,7020,7977.2,7594.8,6541.3,6862.8,9439.8,12218,14676,18485,20938,20222,17534,15829,14548,12504,12008,12273,12792,13961,14231,14017,14549,16741,17209,16765,18708,20393,19508,17816,17601,16020,13940,13333,12923,13207,13646,12865,11600,10874,10177,7153.9,5953,7372.8,7789.6,6132.1,5861.7,7483,6350.4,4799.8,4451.7,3331,3413.6,2389.2,-1311,-3907.1,-2762.5,-2625.6,-5974.2,-7493.7,-7228.6,-9078.5,-12453,-12898,-12478,-13529,-13893,-14107,-14446,-15540,-18436,-21159,-22252,-20492,-20692,-22198,-21814,-20011,-21438,-23572,-22068,-21002,-21364,-19899,-19891,-19792,-19196,-21083,-24438,-25732,-26065,-28819,-29574,-30336,-31857,-33210,-30878,-24813,-22510,-22954,-22909,-24649,-23587,-20761,-20613,-19165,-16690,-17538,-22644,-24990,-23306,-21577,-21035,-16949,-10907,-8309.8,-7894.8,-7766.6,-6982.9,-6797.1,-9213.7,-11967,-10505,-6427.3,-7883.5,-10814,-9957.7,-5583,-3852.5,-2169.6,3450.7,7300.6,9869.9,10292,7491.2,7846.7,10270,11117,12256,15412,16931,14356,13122,13242,13096,12010,14280,18373,18505,19345,21075,20629,21129,21226,19347,18501,19908,18298,14283,13952,15887,16000,15985,18097,18723,17899,17677,17145,17925,19154,18297,16202,16096,17524,14459,10704,10257,10444,8930,9421.6,11843,12416,12157,12337,11335,10629,9853.1,7564.3,4943.7,4187.1,2131.6,-2061.7,-2331.2,-836.08,-833.15,-3116.9,-2771.5,-1437.1,-1647.8,-1699.5,-1735.3,-1598,-307.54,-103.3,-2066,-3248.4,-2593.4,-5218.1,-8478.3,-7779.9,-5748.7,-6599.3,-7512.8,-5344,-4064.5,-4244.1,-4628.4,-6925.2,-8755.2,-9046.3,-9976.3,-9790.7,-7078,-3892.3,-3735.7,-4232.8,-4665.5,-5828.3,-8681.5,-8483.7,-6441.4,-5560.8,-4720,-3592.3,-3388.2,-2036.5,-1992.1,-3665.9,-5415.3,-5476.3,-6402.9,-9195.5,-9091,-6338.5,-4608.6,-4767,-3956.5,-4261.7,-6012.7,-7525.5,-9257.7,-9036.8,-6202.7,-4649.2,-6029.7,-5548.5,-2820.6,-4422.5,-6171.2,-5356.8,-4348,-4805.2,-4929.5,-4221.4,-4554.1,-5693.1,-6239.4,-6726.6,-6190.7,-5528,-6170.4,-7246.8,-6582.8,-6026,-7620.2,-7628.6,-5713.5,-4865.4,-6269.4,-6491.5,-6019.4,-6918,-7474.9,-7185.8,-6785.1,-5265.8,-4305.6,-5222.8,-5981.8,-4813.2,-4970.2,-5923.2,-4368.5,-2222,-2157,-3210.1,-3142.3,-3901.1,-5155.8,-5673.8,-6474.5,-6287,-4610.6,-3737.7,-4063,-3020.9,-2167.2,-3636.8,-3611.9,-1692.1,-777.24,-2025.6,-2659.1,-1940.8,-1633.9,-2100.2,-2814.8,-3326.7,-1997.6,-765.14,-1417,-1952.6,-302.17,817.94,502.52,2231.1,3998.9,3082.4,903.05,140.17,-592.09,-1269.5,-272.99,106.6,755.6,1579.4,1642.8,1193.5,1303.2,2323.3,1743.6,1538.4,2782.8,3577,3008.2,1427.8,1511.4,782.98,-504.13,-540.7,-920.58,-842.35,264.42,272.57,18.366,920.77,2077.7,1920.2,2974.2,4558,4284.7,2996.8,2655.3,2287.7,507.8,-628.49,-792.36,-521.33,-120.43,-662.55,-1166.8,-553.66,1859.1,3498.2,3919,6007.8,6954.1,5894.2,4872.6,4125.8,2032.8,-40.165,-216.16,411.14,1623,2290.6,1921.6,1057.3,1032.4,2520.5,3092.5,3284,4483,5225.2,4246.8,3255,1996,153.96,-886.37,-1712.2,-2425.5,-2398.9,-2572.2,-3285.2,-3117.8,-2544.5,2222.2,3412.5,1398.2,-452.61,1137,2807.5,1620.2,995.88,2699.7,2615,3464.4,5308.4,5006.3,4512.8,4360.9,3018.4,1026.7,1401.6,2497.3,428.6,165,1539.6,1077.1,-1499.2,-1532.7,-567.71,-1694.3,-3651.4,-6113,-8275.2,-8456.6,-9272,-12357,-14023,-12623,-9818.7,-7443.1,-3792.5,216.03,-329.91,-1635.9,-560.42,195.72,-105.68,-755.14,-1941.2,-2444.6,-2450.5,-3227.9,-4814.9,-5068.1,-4223.3,-5815.6,-5733.7,-4521.4,-5034.9,-6629.6,-6955.6,-6747.1,-7976.8,-8762.4,-8671.7,-7408.9,-4921.7,-4454.3,-5989.1,-6670.4,-5345.1,-4163.9,-4406.2,-3444.9,-1958.7,-2472.8,-4664.5,-6010.3,-7238.6,-8483.1,-8812,-8788.5,-8131.9,-6256.2,-5925.6,-6450.6,-6460.5,-6216.6,-8140.5,-8705.9,-6872.9,-6295.3,-8453.5,-12265,-13975,-15082,-14476,-11365,-8614.5,-6235.3,-3720.7,-2536.3,-1410.9,444.45,1394.9,612.72,298.86,623.62,-309.55,-3404.5,-4842,-5712.9,-6910.7,-7238.3,-7108.7,-6774.8,-4989.6,-4242.6,-5176.2,-4819.7,-2323.7,-1103.7,-1586.3,-1372,-111.09,-324.85,-2881.2,-4241.3,-5937,-7850.2,-8012,-7950,-7148,-5879.6,-5549.4,-5839.5,-4817.9,-1865.4,-950.25,-224.54,906.37,-968.47,-5651,-7874.6,-8190.9,-7871.9,-5371.3,-1165.1,1347.2,2481.4,3221.1,3990.9,3908.6,3773.9,3694.6,3018.8,4351.2,6588,8595.6,9890.5,10638,10621,9613.2,8840.6,8656.6,8554.7,9032.6,8631.5,7291.6,6905,7212.8,7659.6,7679.5,7131.5,6204.8,5262.2,5462.9,7273.1,9235.4,9358.5,9087.1,9136.8,8498.5,7098.8,5815.1,5702.9,6659.7,8948.3,11138,12513,13103,12019,9788.7,8022.6,6813.9,4655.3,2705.6,2467.4,2955.3,4715.8,5362.6,3155.1,573.67,-875.93,-1797,-1653.5,1404.6,4730.6,4792.2,3357.6,2116,108.51,-2414.5,-4748.8,-6690.1,-7542.4,-7462.4,-7135.3,-8200,-8822.9,-8682,-8053.3,-6842.1,-4245.4,-433.58,2014.4,1748.8,815.56,-1369.6,-3776.6,-5443.6,-6359.3,-6638,-6944.6,-7385.7,-7837.9,-7694.3,-6896,-7378.5,-7582.4,-7983,-9487.6,-11145,-11915,-11725,-11937,-12128,-12020,-11371,-10298,-10150,-10221,-9011,-6681.1,-6286.9,-6439.5,-6138.7,-6361.9,-7214.7,-6924.5,-6042.7,-6284.8,-6809,-7181.6,-7005.5,-6328.7,-5433.2,-5343.6,-6094.1,-5735,-5299.6,-5712.6,-5388.7,-4504.1,-4366.3,-5131.3,-5195.7,-4426.6,-4741.7,-4852.8,-4351,-4139.6,-3427.5,-2656.8,-2174.6,-2089.1,-1760.4,-2302.5,-2814.3,-2685.1,-2935.8,-4314.8,-4702.7,-3517.6,-2428.2,-2017,-1524.9,-502.25,-121.66,-1199.1,-2133.7,-1807.8,-987.07,-377.4,-1215.6,-1835.4,-2101.7,-2050.7,-1952.9,-667.97,599.65,1217.3,2256,3237.9,3336.3,3483.3,3841.8,3826.6,4579,6269.5,6983,6554.2,6690.3,6912.5,5436.2,3760.6,3757.3,5371.1,7441.8,8797,10419,10974,10236,9115.3,7940.3,7299.8,7913.8,8099.4,6534.3,5343.1,4418.5,3340.6,3346.5,3971,5844.8,8751.6,10850,11060,10375,9811.5,8068,6691.7,7223,7354.8,5674.2,3631.4,2605.5,1922.3,506.88,-246.21,1048.2,2520.7,2344.1,1793,1134.7,644.71,-905.99,-2171.5,-2844.7,-3464.5,-4650.3,-6261.2,-7273.2,-7964.2,-7862.4,-7090.3,-6636.8,-7539,-8951,-8844.2,-8755.1,-8221.9,-6864.4,-6609.3,-7172.6,-7578.6,-8312.4,-9888.8,-11434,-13180,-14535,-14569,-12687,-11207,-10562,-9904.7,-9616.3,-10173,-11162,-11464,-11651,-11212,-10718,-11443,-12550,-14055,-15490,-15320,-13492,-9508.3,-5600.6,-4531.4,-4263.8,-3582,-2865.6,-3791.6,-4830.1,-5206.9,-4866.6,-4898.8,-5769.4,-6107.5,-5520.7,-4143.1,-1678.7,797.99,2868.8,3565,2236.7,783.41,-87.411,-150.53,497.87,1091.3,1327.1,1976.1,1488.6,-537.06,-1483.4,116.03,1051.4,352.69,269.01,1239.3,2254.8,3399.7,4884.2,5742.4,6169.3,5527.8,4737.5,4780.9,5237.1,5361.6,3805.7,1918.1,768.83,-22.262,-329.51,462.87,1397.7,3125.9,5573.6,5706.2,4563.4,3779.4,2547.3,1583.3,2161.4,3568.4,2332.2,212.89,-471.78,-461.29,-265.29,450.5,1591.3,2329,2643.7,2780.8,2159.4,2276,2369.8,2032.9,3471,5294.3,5136.7,3356.5,2495.6,2713.6,2600.9,2601.5,2837.5,3138.6,2975.2,2276,1469.3,-50.294,-1761.3,-2486.2,-1138,1017.6,2785.8,3161.3,2365.6,1811.1,1075.9,-240.73,-1360.4,-1249.8,-1603.4,-2717.1,-3036.7,-2170.4,513.06,1551.2,-6.5511,-477.43,923.82,825.13,191.29,1010.8,1956.1,2331.3,2121.6,1494.6,1535.3,894.88,70.083,-725.22,-2118.6,-3141.6,-3157.7,-3467.4,-3847,-4185.4,-5175.6,-5936.8,-4546.2,-2764.2,-2085,-2031.4,-1493.3,-303.15,1099.6,2105.4,1667.1,620.32,-97.25,-1572.6,-3872.9,-5502.7,-6047.6,-5974.5,-4014.2,-1391.9,-475.4,-1194.9,-2016.1,-1389,-772.6,-140.89,-687.39,-1606.2,-3324,-4807.4,-5078.2,-4776.5,-4601.1,-4236.4,-4342.5,-4213.8,-3872.8,-3676.1,-4058.1,-4448.4,-4215.8,-5600.1,-7441.2,-8909.8,-10148,-9592.3,-8351.8,-7366.1,-5813.3,-4855.7,-4708.5,-5267.1,-4487.5,-3480.6,-3945.1,-5705,-6035.8,-5899.9,-6347,-5323.9,-4709.8,-4898.2,-4954,-5089.7,-5313.5,-5207.8,-4663.3,-4713.4,-5623.6,-5231.4,-4669.6,-4742.8,-6675.8,-8893.6,-9982.3,-10916,-11688,-10852,-7935.4,-5676.4,-5531.5,-5717.6,-4862.8,-4064.5,-3862.4,-2324,-620.14,-488.32,-1950.2,-3120.4,-5413.4,-8341.9,-10237,-11731,-12585,-10431,-5978.8,-3278.3,-2122.3,-2018.8,-1696.7,-1470.8,-250.13,2435.5,4018.2,3323.2,2716.1,1631.9,11.54,-656.71,610.7,1520.4,1635.8,-423.85,-2856,-4202.4,-3435.9,-2284.6,-1299.4,2891,7529.9,9460.6,7930,7994.3,8333.6,6874.4,5491.3,4407.1,4552.4,4978.9,5434.7,5516.1,5916.3,6479.4,6323.3,7809.3,9943.6,10604,9752.7,8881.7,8415,6582.7,5278.1,4634.3,3881.2,4546.8,5881.7,6425.3,6623.8,7673,8631.6,8149.6,8486.4,9662.7,10194,8275.3,6619.3,6703.5,6064.9,4976.4,4441.3,4208.3,4516.9,2993.8,488.54,-776.25,1372.5,2646.8,3346.2,5296.7,7156.5,8566.2,8725.3,8810.4,7026.4,3759.6,2718.5,2055.7,876.02,1560.6,2870.7,3681.3,4238.6,5828,4722.3,3180.2,4081.7,3649.5,525.2,-1583,-2328.5,-4720.5,-6901.2,-7975.8,-7843,-6321.3,-5686.7,-4257.7,-1302,497.9,1497.5,681.65,253.58,-205.5,-1738.1,-3959.9,-3745.6,-2757.4,-4198.5,-5219.1,-5378.2,-5171.1,-5261.8,-6907.6,-11214,-13530,-12622,-11452,-12037,-12346,-13239,-16458,-17116,-12720,-9697.2,-9701.1,-11199,-11914,-11571,-10929,-10861,-12486,-12366,-10186,-12131,-13561,-12919,-13769,-16805,-19411,-19439,-19909,-20108,-16498,-10767,-5135.2,-3185.8,-4929.3,-5590,-3539.7,-2574.4,-5556.5,-6917.5,-5015.4,-2919.2,-4020.7,-6753.9,-6613.3,-3934,-4099.4,-6164.8,-5747.5,-1762.3,-206.94,-3833.3,-5533.5,-4015.2,-4801.1,-7728.3,-8186.9,-7467.6,-9460.2,-12354,-10884,-8278.9,-7433,-7773.9,-8343.5,-7502,-5646.6,-4068.2,-4276.9,-5278.3,-5448.7,-9359.9,-8866.8,-4399.3,-1542.7,-584.56,3321.5,8834,11431,13246,14809,14736,14890,14557,14391,14957,16768,15137,9357.9,5661.8,5342.6,5511.3,6484.8,11657,16680,18415,18435,18125,18100,18129,17200,15882,14747,14960,10625,6587.6,6697.9,5676.7,1677.9,-945.83,-1372.5,-1718.3,1623.2,7114.5,9519.3,9445.8,9187,7070.1,3596.2,3180.1,3515.2,-1573.5,-5693.1,-6645.9,-6728.8,-7523.5,-6494.3,-5035.9,-5807.3,-5068.6,-3415.9,-3920.6,-4765.9,-6464,-11941,-15825,-12197,-7634.5,-4676.1,-1388.9,196.38,-1662,-3880.2,-2954.9,-2983.2,-5036.2,-6277.6,-8307,-8899.8,-7614.3,-6204,-5175.6,-3856.3,-2121.6,-3818.7,-5423.1,-3434.6,780.14,3881.1,5897.9,6735.7,6120.6,5198.8,5145.8,6227.6,7870.5,8442.9,6985.7,5107,5612.1,5261.5,906.57,-101.98,914.68,47.167,-1119.1,1606.6,4413.8,4713.7,5726.1,5991.1,6114.4,6516.3,5688.4,4165.1,3442,4209.3,925.43,-3555.6,-4013.7,-3789.5,-4885.9,-4648.5,-1817.5,-973.62,-557.99,867.67,28.338,-2257.5,-4836.7,-8811.6,-10666,-7439.9,-3496.2,-5224,-7272.3,-6420.3,-4847.8,-5736,-5264.9,-2071.5,1290.1,1131.1,-1772.5,-8309.1,-13692,-15608,-15535,-11646,-6447.4,-3308,-2033.5,-1663.8,-3094.2,-4485.2,-5567.7,-5999.9,-6874.9,-6894.4,-6779.4,-7956.1,-9992.8,-11161,-12760,-12812,-10592,-7777.6,-8225,-8030.4,-6485,-6577.9,-8044.9,-8456.6,-6564.6,-6369.8,-7309.7,-7581.7,-7742.9,-7335.9,-6981.2,-7177.1,-7619.9,-6759.8,-5685.5,-6346.8,-5558.9,-3651.3,-3668.1,-5562.6,-5909.1,-5456.5,-5359.4,-4843.1,-4351.2,-4328.4,-3248,-2663.2,-3158.6,-3435.4,-2718.4,-2054.5,-1941,-214.87,1554.3,1181.6,70.192,-186.53,-692.81,-2006.5,-2362.5,-2333.3,-1318.6,471.77,1056.1,879.3,1919.7,3969.4,2490.1,404.33,673.91,2089.5,1226.9,752.56,1339.2,802.26,52.36,770.72,1896.9,2624.2,2519.7,1933,1048.6,641.09,504.64,-762.83,-994.2,1025.1,3315,5055.1,4928,5195.9,4694.1,4210.9,4847,4815.4,4518.6,3698.7,2915.5,3123.1,4363.6,4649.1,4956.6,6965.2,8903.9,8785.9,7623,6939.3,4764.2,1883.8,1058.8,814.66,988.81,1935.5,2453.9,2387.8,2483.8,2678.5,2130.6,2996.8,4212.1,4324.6,3457.7,1901.3,-1494.4,-3066.1,-3200.2,-2803.6,-1979.5,196.87,1916,1779.1,1221.2,1673.1,270.28,-1848,-1347.4,42.146,864.56,1384.9,855.08,-983.15,-2450.4,-2177.8,-1017.8,232.11,1456.7,1719.4,1046.6,102.89,190.76,313.22,875.25,1570.6,1361.9,232.14,255.85,1158.8,1281,1400.1,988.36,-1073,-1832.1,-833.03,-696.2,-1064.9,-955.5,-283.3,0.64119,-386.74,-1358,-2196.3,-2664,-1123.7,1365.8,2638.6,3448.8,3069.8,1214.6,329.18,1059,1471.4,1368.5,1721.2,975.02,1769.9,3116,3228.9,1800.2,563.74,-272.34,-1851.4,-3641.8,-5141.5,-6245.2,-6538.7,-6069.5,-4770.2,-1929.9,1091,1132.4,-455.36,-577.04,1143.6,2358.8,808.61,-1310,-2426.3,-3298.5,-4150,-4686.2,-4663.6,-4503.5,-4762.1,-5249.8,-5303.7,-4829.5,-5245.1,-5904,-5353.6,-4271,-4495.1,-6061.9,-7348.6,-8367.2,-8544,-8900.6,-11351,-14318,-13276,-9248.8,-6876.8,-7693.7,-9801.3,-9516.4,-6479.2,-4917.9,-5703.9,-6976,-6676.5,-5998.3,-6574.3,-7761.4,-9070.3,-8956.8,-7716.8,-6748.6,-6756.3,-7201.9,-7123,-6722.6,-6771.9,-6778.8,-6095.2,-6634.6,-7064.9,-6769.1,-7369,-7913.3,-8153.7,-8660.9,-9702.8,-10432,-10509,-10101,-9825.8,-10703,-13632,-14690,-12646,-10887,-10074,-9459,-9541.7,-10743,-10381,-9150.8,-8261.9,-7436.6,-6745.1,-6757.9,-6706.6,-5831.4,-5099.3,-5165.7,-4706.1,-3674.8,-3041.1,-2634.3,-1314,-173.47,-345.22,-1339,-2154.3,-1865.3,-80.399,1105.2,1958,4119.6,6015.9,5390.5,5101.3,6573.3,7168.8,7682.2,8796.9,9492.7,8624.7,7614.6,9203.3,11804,12867,13242,13994,15592,16890,16058,14005,12416,11955,11003,8527.9,8405.2,11309,13695,14061,13752,14574,15302,15174,14448,13735,11875,8993,7824.3,8354.7,9127.2,9464.6,9323.5,10001,10070,8621.7,7342.8,5692.7,3875.8,2492.5,1807.1,3016.7,3646.4,2400.5,1278.5,1528.5,2642.4,3059.3,2685.5,2309,2827.2,2896.5,2702.4,3048.6,1442,-1181,-2459.3,-929.37,1975.2,1874.1,777.36,65.401,-1033.2,-1975.1,-3635.9,-5939.5,-4708,-1035.1,-253.28,-1382.2,-2138.4,-1832.9,-527.53,598.22,1440.8,2262.3,2253.8,697.44,-1420.6,-2242.1,-2375.5,-2896.9,-2304.1,-1080.1,-417.72,-605.15,417.01,1534.3,2224.5,2935.5,3888.4,2892.2,150.52,-1833.1,-1786.5,-170.71,-815.6,-3625.3,-3990.4,-1727.8,-2512.5,-5691.5,-7645.4,-7654.8,-4506.4,-2009.7,-1995.7,-4205,-7643.9,-11178,-13786,-13969,-13270,-13420,-13992,-13859,-14359,-14796,-13179,-11675,-11345,-11860,-12767,-12536,-13257,-16831,-19389,-18094,-18915,-10019,-9489,-7981.3,-8778.3,-10817,-8741,-5282.5,-4857.7,-5650.2,-7017.6,-7798.9,-7114,-6357.6,-5744.2,-3969.7,-3679.9,-6525.9,-8046.1,-6347.4,-4530,-5163.9,-5828.9,-5532.8,-6684.6,-8119.3,-8625.9,-9495.6,-9361.8,-7949.8,-8865.1,-11965,-12615,-11840,-12584,-11088,-7001.9,-4258.5,-4397,-4574.3,-4834,-5987.6,-7275.9,-8129,-8099.3,-7466.7,-7502,-8452.2,-9165.6,-8618,-9265.3,-9941.6,-8264,-6701.1,-6645.6,-7576.3,-6682.9,-6382.5,-7001.9,-7425.1,-8705.1,-9197,-8235.4,-7379.5,-7063.1,-6540.4,-4903.8,-4569.2,-4723.1,-3777.2,-2931.2,-3271.6,-3264.1,-2847.5,-4071.5,-5611,-6036.7,-5737.1,-4237.4,-2274,-1465,-1845.1,-1527.9,-1733,-3431.4,-3144.8,-950.38,-891.09,-1821.5,76.809,1994.5,961.58,36.88,-62.383,1179.8,2241.5,2114.6,924.41,1069.6,2615.9,4148.2,7498.3,10817,12146,11292,8952,7092.3,5250.8,4025.7,4303.5,5478.9,7915,9594.8,9232.6,8393.5,8050.5,8876.6,10311,12942,14711,13986,11920,10415,9559.7,8436.9,7713,7189.7,6119.7,4815,5005.9,5997.7,6976.5,9473.5,12957,15173,14922,13637,12272,10974,9836.6,8718.6,8666.2,8972.6,7073.3,4172.5,1520.7,1327.8,4852.1,9739.4,13981,15589,15399,14344,12360,10095,8832.7,8616.4,8069.8,7564.2,7680.1,8113.9,8402.2,8073.2,8046.2,7968.5,7554.9,5454.9,3488.3,3743.1,4402.8,2842.2,175.83,-25.907,444.65,168.81,-807.56,-1883.1,-2033.5,-1850.1,-2642,-4076.7,-4395.4,-3007.1,-2537.3,-3294.3,-3905.5,-4901,-6511.7,-8168.2,-10996,-14667,-15896,-15917,-15797,-14090,-13027,-13828,-14788,-14489,-12836,-12414,-11636,-10841,-10772,-11037,-12316,-13830,-15246,-16301,-16198,-15295,-14153,-13485,-14025,-16230,-19273,-20749,-20300,-16719,-11656,-8402.5,-7006,-7198.9,-7927.2,-10043,-12339,-12461,-10623,-10311,-11368,-11947,-11579,-10981,-10618,-9788.9,-8648.3,-9026.2,-10171,-11109,-11637,-11693,-10653,-9439.9,-9345.2,-9035.6,-8903.2,-8730.1,-8589.2,-7314.1,-5757.6,-5294.5,-5976.9,-7059,-8872.6,-10726,-11422,-10231,-7544.5,-5801.7,-5253.9,-5014,-4461.9,-5266.7,-6547.8,-5758.6,-4292,-3659,-3593,-3022.1,-2870.4,-3603.1,-3670,-2595,-1887.8,-1620.2,-1378.1,-1237.3,-596.56,-98.011,514.93,1243.5,2544.5,3385.9,3782.3,4874.7,5423.2,5838,6875.9,7416.8,6847.8,7025.3,7525.1,8579.6,10334,12356,13093,13251,13097,13616,14129,13727,13596,13308,11810,11524,13174,13931,13652,13485,13366,13939,14544,14748,14658,14205,14507,14805,14592,12576,10321,8952.6,8869.7,10066,10597,10346,9874.5,8475.6,8054.3,7867.5,8994.4,10640,11107,8814.4,5362.3,7825.8,8782.2,5061.6,3392.8,3416.4,2180.9,1009.6,1014.5,777.17,1912.8,3646,3477,2252.1,1802.7,758.04,-1364.6,-3630.1,-5127.9,-4947.5,-5090.5,-4879.4,-4148.5,-3350.8,-3753.9,-4055.5,-3865.8,-4031.9,-5271.7,-6856.7,-6351.6,-4995,-4309.6,-5276.3,-7197.2,-7889.1,-7323.1,-6661.6,-5944.4,-4885.5,-4437.4,-4042.6,-4141.7,-4116.4,-3736.9,-3916.8,-4318.2,-4647.9,-4447.5,-5833.5,-8574.7,-11672,-12110,-11372,-8646.6,-6228.2,-5786.2,-7144,-8216,-8194.3,-6915.6,-6388.3,-7251.5,-7541.8,-7511,-8069.4,-9025.9,-9427.6,-9775.3,-9963.6,-9108.6,-7022.2,-5230.1,-4544.6,-4216.4,-3743.2,-3525.4,-3441.4,-3692.6,-5020.9,-5728.8,-5222.9,-6141.1,-8425.2,-9979.2,-11579,-12970,-14177,-15116,-14866,-11880,-6972.9,-4392.5,-2947.3,-1848.8,-2697.3,-3497.4,-3419.8,-3875.7,-5556,-7217.7,-8046.2,-9278.1,-10702,-10602,-8723.3,-6564.4,-4321.6,-2183.8,-1850.6,-3903.1,-7228,-10060,-9651.1,-5843.3,-2764.8,-2516.3,-2974.4,-3452.1,-5472.7,-7218.7,-6548.1,-4021.5,-1896,-1212.3,-1647.8,-3022.4,-3931.8,-4229.8,-4382.4,-4523.8,-4630,-4814.9,-4191.7,-2855.9,-2926,-3541.7,-2970.1,-801.36,817.05,1480.1,2342.3,2655.9,2208.9,1808.3,1729.4,1930.9,2599.7,2277.1,947.35,334.21,866.26,1108.2,1225.2,2572.4,4501,6219.6,7416,7150.4,6359.3,5816.8,6101.4,6351.7,6334.4,6163.6,5069,3476.2,3924.3,4652.3,5067,6164.9,8252.1,9591,9192.5,6944.4,5515.7,6627.6,7507.8,6582,4040,2888.6,4649.8,5907.3,6580.2,8161.5,9911.9,11277,12098,11473,9175.7,6599.2,5840.2,7645.7,9730,10192,9009.6,7455.3,7454.6,8216.3,7345.4,7081.5,8730.4,9309.6,8886.8,7670.9,6012.8,5219.5,4626.2,3381.9,1508.1,523.38,1280.4,1846.3,1379.5,863.53,-309.22,-2124.3,-3497.9,-3613.8,-2456.1,-1534.6,-517.71,-342.95,-905.92,-2586.7,-5021.8,-6487.4,-7073.8,-7600.7,-7829.1,-7380.2,-7473.7,-8487.1,-9133.2,-8792.7,-7701.4,-6430.6,-5503.1,-4962.2,-5625.8,-6573.4,-7007.6,-7866.2,-8619,-8617.5,-8838.6,-9016.2,-9076.1,-9644.5,-10613,-9541.1,-6346.3,-5090.1,-5786.8,-6254.5,-6347.1,-6782.2,-7275.6,-7680.2,-6870.3,-4484.8,-3679.4,-4111.2,-4288.8,-4295.7,-5278.1,-6264.8,-5731.9,-4417.1,-3329.6,-3085.6,-2770.6,-3351.2,-3837.7,-3735.4,-3859.7,-4921,-5236.4,-5262.2,-4410.2,-2686,-1757.2,-2061.4,-1684.6,-205.55,740.73,167.04,-1926.1,-3554.4,-3577.8,-2449.5,-1887.1,-2323.1,-2296,-1826.5,-1683.3,-1907.6,-1975.8,-1809.9,-2236.5,-1677.4,-370.15,667.13,345.03,-40.966,-628.3,-1941,-3080.1,-3867.4,-4645.4,-4650,-4140.7,-4253.5,-4017.4,-3655.8,-3980.8,-4107.9,-3083.2,-2755,-2925.5,-3431.8,-4338.4,-5215.7,-6764.5,-7831.5,-7632.6,-6807.6,-5943.5,-5148.2,-4217.8,-3370.3,-2913.5,-3440.7,-4575.5,-4380.9,-3355.6,-3550.6,-4662.4,-5478.2,-6666.5,-7340.5,-7463.8,-8234.8,-7940.3,-5707.5,-4079.9,-3570.9,-2266.1,-924.48,-670.27,-421.29,470.22,521.11,-383.03,-2398.3,-3140.2,-3652.8,-4559.6,-5448.9,-6104.2,-6958.1,-8618,-9441.2,-7994.1,-4804.1,-747.1,3047.1,6524.4,7544.8,5129.1,2462,1315.7,976.18,1475,4080.8,7421.3,9219.4,9756.8,8706.7,5847,2125.2,752.65,529.73,1086.8,5581.3,9261.2,8784.9,5969,3647.3,1877.8,1339.1,2225.4,3059.7,3978.5,4933.2,5717,6967,6583,5016.5,3073.8,2988.6,4789.7,5264.6,4088.2,3822.9,5282.1,4726.1,2827.2,2228.9,2860.4,4302.4,4604.2,4347,5046.1,7628.4,9234.1,8870.5,9183.7,9612,8703.4,5982.5,4257,3811.1,2980.7,2607.7,2948.5,4919.9,7987.3,8907.1,9089.7,10966,12518,11942,11529,13104,15563,16012,14115,13069,12104,10700,9434.6,7688.7,7223.7,8775.6,10212,9683.8,8880.9,8528.2,5169.3,-228.61,-3073.8,-6220.1,-9545.1,-9466.8,-5654.6,-1002.3,523.27,1073.6,2020.2,2604.9,2205.7,96.137,-3109.4,-4911.8,-7330.1,-13182,-17670,-19894,-22358,-24300,-23411,-23060,-26383,-26722,-26639,-28597,-28440,-27270,-28336,-29890,-27285,-25491,-25623,-24060,-23695,-24189,-23152,-20160,-19250,-21141,-23681,-29032,-34192,-38610,-39393,-34966,-27444,-15177,-5156.9,-671.4,-1950.7,-5903.1,-9664.3,-9380,-5175.8,-1872.2,-37.796,533.89,79.798,-128.59,-790.27,-1097.5,-1791.6,-2005.6,-1600.5,-1151.5,378.8,4150.3,8279.8,10197,11723,11314,10043,10331,11738,14628,16206,15190,13885,13591,13122,8381.7,3982.5,3579.4,4763.2,6579.5,10521,13928,12806,10410,9641.4,8576,8415.6,9536.8,8325.8,5531,6610,7926.3,3332.3,-70.607,1487.8,3792.6,2844.1,3283.9,5022.4,5510.2,5905.7,6273.7,5817,6505.6,6650,4622.2,1894.2,-230.44,-4537,-8129.2,-6734.7,-4126.3,-1766.4,920.91,4000.2,5600.4,5700.9,6943.1,9209.8,9387.1,8840.7,7954.8,6231.3,6340.8,7513.4,4817.6,2269.5,2094.5,2120.4,555.2,392.82,2681.2,1774.5,-509.65,-470.19,1584.4,4867,7140.8,7949.7,7597.5,7890.6,7324.2,3726.2,1792.3,2347.7,2047,63.582,-410.42,395.35,110.58,-8.356,420.79,-55.392,260.47,-200.87,-1289.7,-1576.1,437.63,1057.7,-449.5,-1581.2,-3289.5,-5944.5,-7728.4,-5081.5,-1938.8,-1413.4,-1161.6,-1569.7,-2126.4,-1651.8,-2103.9,-3704.1,-3966.4,-3092.4,-5493.4,-7045.2,-6743.6,-7734.1,-10109,-10387,-8415.5,-6592.6,-5373.6,-5010.2,-6159.4,-5762.8,-4702.6,-5808.2,-7635.4,-7084.5,-5946,-7338.3,-7267.6,-6236.5,-6420.4,-7951.6,-8006.9,-7250.2,-7301.8,-6657.7,-5657.1,-5332.7,-5556.5,-6101,-7036.4,-7525,-6126.5,-6032.3,-6463.1,-5486.3,-4731.1,-5729.5,-6766.2,-6157,-6383.6,-6255.1,-4962.1,-4137.9,-2948.7,-2365.2,-2883,-3956.6,-3785.2,-2996.3,-5156.3,-6235,-4400.2,-2906.4,-3460.7,-2486.1,-947.15,-1388.7,-1844.7,-2432.8,-2868.9,-2522.3,-2440.7,-2640.9,-2573.4,-1111.6,-154.37,-811.62,370.43,1978.9,1477.5,-49.051,-201.74,-1267.1,-2132.2,-1220.3,-1055.1,-1221.6,-407.14,-126.53,-821.45,-1240.4,-678.24,-2092.8,-3189.9,-1978.1,-859.16,-1742.1,-2584.9,-2653.3,-3274.8,-4389.3,-4407.6,-4531.9,-3990.9,-3660.9,-4060,-3562.1,-2675.8,-2307,-3234.2,-2560.1,-545.03,208.71,-480.28,-523.35,-513.01,-1521.3,-2493.1,-2933.2,-3228.5,-2037.3,-756.01,-1031.7,-2117.1,-77.906,549.29,-1070.1,382.47,2883.3,2457.4,2065.3,3338.4,2973.9,2815,3173.1,2496.4,2230.4,2150,1445.4,1597.5,3049.1,3541.2,2173.5,2921.8,4755.3,4981.8,3005.1,739.45,-588.83,-2611.8,-2545.2,-797.57,2288.4,5494,5918.5,4678.3,4597.9,5545.9,5051.9,3385.4,3615.5,5185.4,5701,4544.3,4180.4,3813.6,2751.1,2524.4,2208.6,1548.1,1350.6,900.96,436.36,253.93,262.52,-1058.2,-1565.6,401.56,2205.7,2335.3,1643.2,1532.7,348.85,-1367.4,-1711.5,-2566.9,-3457.2,-2723.1,-1469.7,-1390,-1366,-957.58,-773.14,-167.06,103.25,350.06,908.87,1739.6,2506,3611.8,4394.7,3697.5,2743.8,1996.9,152.24,-1362.3,-573.2,1039.5,600.24,421.96,1448.7,1808.8,955.91,82.516,-267.14,-769.25,-1391.9,-1717.4,-2419.2,-4232,-4572.5,-5093,-5556.8,-5564.2,-4931.7,-4045.4,-3518.5,-1947.9,-863.5,-1007.7,-2004.5,-3207.5,-4210.6,-3999.9,-3730,-4781.1,-6493.8,-7981.1,-8789.3,-9184.4,-8656.3,-9319.1,-11604,-12938,-11814,-10502,-9419.3,-8353.3,-6730.5,-4546.1,-3072.2,-4097.3,-6692.9,-9017.9,-10280,-10353,-10333,-8338,-3946.5,-498.49,-282.46,-2785.8,-5214.1,-6087.4,-5676.8,-3812.4,-1374.5,608,1273.2,1113.1,122.14,-854.31,862.55,3495.2,2009.7,-1435,-1764.1,-1176.6,-1709.4,193.07,1866.5,-852.78,-4306.7,-5740.3,-5025.9,-2195.5,3656.9,7871.4,8956.6,10422,9505.6,4893,2475.3,2014.7,2456.7,2782,2334.1,2140.6,2279.9,2294.7,1517.3,545.09,-768.19,-4958.2,-12545,-17514,-17702,-13802,-8753.4,-5854.7,-3196.5,-2486.1,-5327.8,-6909.9,-7053.6,-6003.2,-3553.7,-1697.4,-3271.8,-5573.1,-7783.4,-10089,-11283,-10403,-7532.3,-1913.1,3575.1,5812.2,4720,3596,3890,3137.4,835.42,-2782.9,-6353.9,-6141.4,-4017.5,-2530.8,-678.67,-378.25,-1539.1,-2583.8,-3313.3,-3773.9,-4810.5,-4942.3,-3496.5,-1052.8,262.44,-62.381,-1409.6,-3320.2,-4021.1,-3126.9,-811.65,2168.3,4849.9,4368.4,2195.5,2049.1,2600.3,2574.9,2048.3,1888.2,305.68,-4128.5,-7072.6,-5693,-2131.3,2126.9,5142.8,7188.9,9132.8,9369.2,8906.1,9296.5,8350.6,6961.2,5545.5,5667.1,6279.5,5531.7,2730.2,-2210.4,-7431.5,-9785.5,-8110.3,-1329.3,6560.1,10550,10195,5956.5,3889.3,4342.1,6922.3,10165,10842,9705.8,10161,10125,8687.5,7842.5,9282.6,10312,9582.6,8935.3,7510.9,5081.1,3332.1,2978.4,2721.5,1736.8,1151.2,3613.9,6446.4,6655.9,5100.3,4539.2,4238.4,4034.4,3599.1,2481.3,2271.2,2632.3,2087.8,-718.59,-4511,-7741.6,-7418.3,-5247.7,-5501.3,-5774.4,-3611.3,-2045.3,-3147.7,-5048.9,-6029.4,-6645.7,-6538.7,-3512.6,-134.52,1361.6,1525.7,-1435.9,-6470.4,-2261.6,-2725.7,-2274.9,-1864.2,-1056.2,1124,2440.6,1895.1,1271.5,1109.8,444.37,130.92,211.88,240.47,-211.48,-597.18,-658.65,-720.98,-864.59,-2048.2,-3296.4,-4246.8,-4480.4,-3659.8,-2686.5,-1695.7,-1670.6,-2728.1,-3325.2,-2979.3,-2449.9,-1100.1,424.16,1316.3,675.81,-364.99,-882.85,-2653.9,-4831.4,-5832,-6662.6,-6472.3,-5831.8,-5921,-5716,-4554.9,-4243.6,-5265.9,-5152.2,-4181.3,-3137.5,-3479.6,-4287.9,-4479.5,-5087.7,-5391.7,-6494,-7502.6,-7473,-7360.4,-7113.2,-5514.5,-3030.7,-2436.8,-2924.3,-1851.2,-530.43,-676.1,-1331.3,-2057.2,-2469.5,-2752.9,-3194.2,-2705.2,-1825.1,-2204.3,-2591.2,-2210.8,-1647.4,-663.91,-325.25,1505,3725.2,3569.5,2564,1714.6,699.91,-884.6,-1893.5,-1830.4,-2357.4,-3127.3,-3293.4,-2962.7,-2914.5,-2155.7,-760.47,-678.71,-387.76,-219.79,-1023.2,-1668.1,-1945.5,-3562,-6404.6,-7363.9,-6987.5,-5592.1,-3821.1,-2566.6,-4028.6,-6391.8,-7072,-6300.5,-5041.6,-4340.8,-4554.5,-5698,-7213.6,-6932.9,-5473.4,-5741.6,-6932.4,-8076.9,-9291.5,-9588.1,-8666.6,-8986.5,-9431.9,-7142.3,-4172.7,-1011.2,1052.3,1024.2,-511.27,-2331,-3667.3,-5626.9,-8032.6,-9462.3,-9047,-6308.5,-4778.7,-4587.2,-3925.9,-2091.7,-779.02,402.92,2914.1,4325.4,3096.5,1121.1,-33.481,-926.09,-1384.5,-1597.1,-2797.1,-3234.6,-2769.1,-2619.3,-1868.2,707.93,3786.9,5452,5579.6,6449.6,7758.3,8118.5,7216.5,7550.6,7385.3,6453.1,6450,6032.3,6243.1,7517.4,7545.9,6452.7,6762.5,8140.9,8201.1,8688.5,10590,11225,9576.5,8004.8,7437.1,5746.3,3945.1,3680.4,4034,4869.6,6911.3,8938.9,9137.6,9518.1,9266.5,7983.2,7916.1,7871.8,6862.2,4735.4,3275.4,2182.4,1003.5,652.39,242.03,779.22,2410.2,3251.4,2595.3,1777.5,2065.5,1574.8,17.074,-10.884,1099.5,477.61,-478.98,700.34,-580.4,-2245.5,-2718.6,-2537.1,-328.27,1534.7,1310.8,281.54,-54.264,-58.337,-2405.4,-3617.1,-2688.6,-1884.8,-2252.6,-1321.3,235.73,-211.38,-269.42,-103.68,-1030.9,-1013.5,-1151.8,-1720.7,-1791.9,-923.23,-2489.2,-6472.7,-6949.2,-4532.4,-2991.7,-4333.6,-5247.3,-5436,-5600.7,-5378.9,-5282.6,-5454.4,-5090,-6386.4,-8275.7,-8297.5,-7095.2,-9329.5,-12759,-13094,-11903,-11947,-12247,-10382,-8734.8,-6747.2,-3780.4,-2917.3,-2459,-2537.9,-3436.3,-4936.1,-4540.9,-4182.6,-7519.2,-10014,-9848,-9782.7,-9012.1,-5730.5,-2693.6,-2101.1,-1658.9,-1973.9,-4005.6,-5023.8,-6103.2,-7182.5,-7354.9,-6524.6,-8326.4,-12258,-13815,-13511,-13753,-13435,-10568,-7817.9,-6055,-4502.8,-5095.2,-8046.9,-11874,-15691,-18158,-17406,-14976,-15775,-16158,-16005,-16567,-17511,-17338,-14152,-12127,-10760,-9379.6,-10168,-11038,-12391,-14604,-15134,-12675,-12220,-16076,-14969,-10233,-7601.8,-7371.4,-4640.8,-869.1,2033.1,4248,3801.5,2521.9,2563,2498.2,3500.6,5799.5,9299.6,9289.4,7228,8086.7,10361,10898,10788,13409,15976,16510,16332,15637,17015,19945,21587,21492,22428,23513,21006,18911,19198,19347,16435,13728,11624,7878.7,5965.2,8809.1,14093,19609,23518,23639,22297,21655,19421,16037,15488,16321,16225,14141,14275,17467,21850,22494,18038,16115,18168,16349,11707,9684.6,9118,5821.8,3732.7,4760.9,5136.1,3675.3,2799,3556.7,3345.4,1784.7,120.42,-1376.3,-2052,-3112.3,-5249.5,-7578.6,-7944,-7463.6,-9129.7,-8836.5,-6236.3,-5508.4,-7093.8,-7358.5,-7082.1,-8894.7,-10428,-11699,-12424,-11159,-10746,-11718,-11694,-10466,-10750,-11964,-11560,-10762,-11795,-13891,-13488,-12965,-13438,-13059,-12763,-13113,-13010,-13945,-15072,-15119,-14231,-14915,-14264,-12811,-12385,-14003,-14905,-14289,-14750,-14902,-13992,-13775,-13083,-12449,-13412,-14872,-14245,-13361,-13130,-11801,-10850,-12097,-14284,-13369,-11963,-13024,-14342,-15372,-15360,-14021,-13006,-11760,-9603.6,-7379.6,-7350,-7834.4,-7568.3,-6991,-7313.1,-8049.8,-7586.4,-7268,-5886.5,-3652.5,-2870,-1226.4,1250.8,2485.7,2201.5,1864.8,2698,2006.9,1077.5,1356.2,1566.5,1298.1,2995.3,4841.9,5118.9,5224.7,4689.6,3552.6,3019.8,2508.7,1059.6,-200.77,1324.5,3365.6,4114.5,5724.7,6842.7,6069,4915.4,5087.3,5619.2,5535.6,4501.4,3353.4,3358.3,4063.6,4242.9,3634,3465.1,4860.9,5338.6,6387,8083.5,8419.2,7213.8,6078.4,6135.8,5865.7,5376.9,4627.1,2885.7,2147.6,1077.5,-1709.7,-3909.9,-3306.6,-1292,-273.82,1536.7,2580.4,1428.9,934.03,3835.6,6956.8,6297.8,4777.4,4204.3,3802.4,2822.3,2422.2,3003.5,5050.7,7370.6,7089.8,5563.4,6082.1,6869.6,6267.1,4633.5,2331.4,-597.14,-3625.2,-3555.3,-1147.8,1634.3,4545.2,7074.5,6125.9,3645.4,3699,4425,6314.1,8389.3,8790,7624.2,6481.7,5788.1,5086.4,4398.6,3457.9,2833.4,3592.1,2436.6,-488.78,-1922.1,-390.64,2514.3,5017.4,7045.8,8600.5,7029.1,1595,-1522.6,-2522,-4539,-6072.3,-5224.5,-3465.3,-1193,-270.17,2149.4,3748.4,3471.4,2150.5,-681.28,-4225.4,-6398.5,-3344.9,626.44,1334.6,1285.7,2108.7,3881.8,2165,-2471.5,-4805.6,-5309.1,-5043.3,-2108.6,3456.9,4655.1,1719.6,-3142.6,-2020.1,2223.7,3790.2,4095.1,2482.1,-1089,-3167,-2364.4,-3001.9,-4335.5,-3382.3,-2315.6,-3887.7,-7427,-9179.2,-7355.9,-3493.5,-350.79,-1979.3,-6595.4,-10623,-11191,-10569,-11620,-12137,-11202,-11162,-12588,-14070,-13519,-13015,-12989,-13290,-15142,-17922,-18273,-16481,-15128,-14805,-15498,-16932,-17087,-16595,-16438,-18072,-19191,-20008,-20286,-18687,-16623,-15544,-13341,-11716,-11458,-10896,-11196,-11966,-12743,-13167,-13269,-13252,-11379,-7740.3,-6004.1,-6259,-5484.7,-5205.6,-5292,-4802.6,-3794.7,-2725,-1951.6,-1566.9,-1316.4,-1065.6,-654.36,195.58,868.91,1300.3,1373.1,1553.8,3459.4,4661.6,4473.6,4002.4,3594.5,3875.3,4907.9,5857.8,6035.3,6721.4,8368.7,9258,9362.2,8928.6,8516.5,8052.3,8243.6,8677,8282.6,7446.9,6917.7,6078.3,5729,5615.2,5956.1,7121.1,9296.9,10902,10958,11706,14022,14821,12094,9488.9,8538,8007.7,7134.5,5256.9,4462.7,6024,6418.1,6267.3,7517.8,7567,5873.2,6673.8,9755.1,12847,13376,10884,9370.3,6890.8,6869.3,10777,13119,12115,11454,12920,14853,17325,18550,16930,14708,12414,11171,9249.8,5403.5,3468.8,2794.8,3977.9,6009.3,7429.9,8611.3,8827.1,7501.6,5434.8,4204.2,3177.7,1881.5,1713.1,2309.2,719.2,-1732.4,-2875.9,-3424.5,-3821.5,-4545.5,-5668.7,-5880.8,-5056.5,-3782.6,-4129.1,-5329.5,-5071.1,-3935.3,-3971.1,-5432.6,-7786.5,-9862.7,-9555.3,-9085.2,-9495.1,-9672.8,-8824.4,-8147.4,-9486.7,-10979,-12356,-12520,-12274,-12465,-12155,-11515,-11233,-12415,-14230,-14782,-15005,-15671,-15684,-15312,-15351,-15191,-14158,-14065,-15774,-17642,-18639,-18671,-18068,-16496,-15511,-14178,-13150,-14402,-16175,-17772,-18392,-18783,-17880,-15276,-13484,-11747,-11298,-12350,-13859,-15054,-15135,-15242,-13755,-10516,-6534.9,-6674.4,-8852,-8585.3,-7189.6,-6967.8,-7272.9,-5280.7,-2476.3,19.276,807.67,-644.65,-1454.7,-2507.3,-2807.7,-753.56,687.23,-407.12,-1401,-2046.7,-3294,-4369.6,-2907.8,681.05,3588.6,5209.4,6534.7,5502.3,3306.1,2785.5,2182.4,3060.2,5590.3,7515.4,7273.3,6707.4,7807.3,9081.6,8224.5,5642.3,2298.6,10.762,-117.44,2936,9418.7,16191,19165,17469,14210,12211,9861.1,7548.5,3725.1,3037.3,8751.7,15984,20488,22236,21570,20340,18510,16960,16176,14129,12006,10375,7668.1,6773.8,12135,18452,19728,15865,11459,10690,13614,16554,16940,16373,16844,14565,10343,6114.7,4530.7,4646.3,3841,5969.3,10126,9909.8,8254.5,5986.3,3766.5,1041.4,-3403.3,-6859.5,-8580.6,-9293.3,-9563.2,-8380.7,-5495.1,-4498,-6558.6,-9656.8,-10717,-10537,-10199,-9793.4,-11246,-12244,-12103,-13878,-16725,-17070,-15068,-12046,-9103.5,-5088.6,-2411.7,-3670.4,-5700.2,-7726.5,-10470,-12105,-10877,-8055,-7027.5,-8388.5,-10100,-11665,-11945,-12519,-13832,-12725,-8478.3,-3824.4,-4700.5,-6660.9,-6492.3,-6187.9,-6787.5,-7027.2,-7414.6,-8231.8,-8168.5,-8722.1,-9041.4,-9577.1,-10746,-11535,-10568,-9570.4,-8681.6,-5231.4,-2534.4,-3204.3,-5962.7,-8459.6,-10937,-12857,-13528,-13930,-12789,-11277,-10621,-9894.5,-9756.1,-9112.9,-8584.7,-7108.2,-3689.4,-848.23,-254.78,-1184,-3487.9,-6407.9,-10049,-11525,-9005.5,-4957.9,-3499.4,-3257.9,-4360.9,-3662.2,449.39,4131.4,4845.8,3666.5,2046.2,-447.32,-3319,-4032,-2413.9,-419.38,939.2,1407.5,824.72,1492.7,2599.5,1588.1,883.49,91.5,-1816.4,-4805.6,-6987.5,-6784.2,-1056.6,5632.2,7759.9,7013.8,5923.4,4971.9,3634.5,1329.8,998.69,891.75,1322.8,1639,1166.4,908.02,-3364,-8881.6,-9802.3,-6214.5,794.06,5952.6,9290.4,10424,7437.1,5636.6,6075.6,5868.7,5617.6,5523.8,5480.2,7263.4,11710,15966,15985,12100,9805.9,10092,10834,13250,14151,11912,8617.3,7011.7,8690.5,12467,15941,18031,19036,18929,16966,13239,8700.4,4120.3,1317.1,895.3,2180.6,4235.4,2912.4,2587.2,9189.5,17106,19614,13145,4190.5,252.87,1976.3,7223.7,11520,11602,13488,12269,12523,17983,21931,21185,18933,17211,13853,7240.2,-2127.8,-9624.2,-8086.2,-702.67,3643.2,6698.2,7572.1,4602.2,-3062.3,-12414,-18174,-14328,-8167.4,-7521.7,-11793,-12574,-6477.3,1111.4,1411.9,-4368.5,-8692.1,-12497,-17380,-19896,-21723,-23221,-21973,-23817,-27668,-29049,-27741,-26205,-26760,-28223,-27595,-25535,-26360,-30004,-33403,-36028,-36906,-35910,-33961,-32817,-34067,-35557,-36931,-39177,-39905,-34693,-28533,-27930,-29099,-29618,-31618,-36103,-38703,-39314,-41194,-42947,-40179,-30622,-19144,-13004,-14230,-16924,-15234,-12162,-14798,-18224,-16441,-12959,-6122.1,1231.8,6795.5,10767,15496,18985,21004,22344,25163,27509,30177,35090,38205,38236,38712,43490,48486,48192,45843,46032,47558,49551,50671,49002,44785,42443,40276,39450,40365,39161,37488,38406,37572,37692,40261,42084,41486,37979,29312,17779,15585,21685,23913,19148,12719,8813.3,7850.6,6223.3,4461.4,2281.8,-1084.6,-5015.3,-6762.5,-3246.2,1837.7,4172.2,1552.9,-1873.7,-3988.4,-7199.7,-8276.1,-7233.6,-7463,-12196,-16135,-15623,-12718,-9422.3,-12239,-19651,-19131,-9344.8,-1631.5,-5116.3,-11633,-16943,-23567,-26220,-24520,-26850,-32270,-30717,-22287,-19066,-19708,-22480,-25372,-26227,-30169,-35626,-32054,-20294,-15330,-19398,-20053,-17908,-21271,-25064,-23005,-19977,-19496,-16189,-12986,-11083,-8921.3,-8138.6,-7896.6,-10904,-15340,-19306,-25313,-26562,-20338,-10723,-4321.1,563.14,597.62,-3898.5,-4401.9,-428.91,2029.4,-2657.4,-9393.9,-8213,-240.33,6956.6,7697.5,6923.8,4993.3,1961.3,-287.16,2425.4,7405.8,9597.9,10845,11576,10785,8915.8,6486.8,2178.2,1268.3,4755.4,4068.1,-4531.7,-9853.3,-486.94,10599,9838,4691.5,3119.7,6565.1,10744,13260,14772,14104,11594,6123.9,-540.3,-425.16,3235.7,3268,2534.2,4267.7,5742,5927,6600,6791.9,7768,8315.6,6298.1,5038.6,4794.4,3731.1,609.72,-2463.6,-6224.5,-8617.9,-4570.8,801.26,3333.9,4022.4,4735.9,462.33,5859.9,6616.2,141.83,1390.8,5281.7,3946,3552,2744,1761.4,5123.4,5100.2,-206.78,-2938.1,3136.7,44.535,-8224.2,-5695.6,159.82,-3329.8,-8842.1,-4958,-3381.3,-4836.5,-2765.9,-4508.7,-5587.3,-4528.6,-7593.7,-13673,-11925,-5973.2,-13572,-18272,-13164,-11036,-18287,-19705,-15539,-16569,-17016,-16126,-18329,-15426,-12997,-17046,-21827,-16303,-14640,-23555,-23699,-16745,-16666,-22578,-19347,-15950,-17575,-16397,-16011,-15745,-12393,-13109,-18539,-18712,-10434,-13226,-19227,-15002,-9341,-12951,-17843,-15149,-15438,-17546,-16860,-18641,-18054,-15458,-17711,-21840,-17182,-11466,-18904,-21596,-14300,-10672,-16417,-14685,-8492.5,-8602.2,-7863,-7379.2,-7802.8,-4681.1,-3093,-5296.2,-4941.7,4087.1,6129.9,-238.52,2072.8,9252.1,5642.3,-4934.2,-1978.1,3662.4,4399.1,4479.1,2346.6,4433.3,10305,11005,5753.6,6720.4,15445,10598,4865.6,11018,16818,12122,10230,16385,16820,15334,15554,12829,14130,15165,11572,7463,11646,15198,7926.1,7429.3,15711,17893,11834,13808,17667,15508,14262,11893,9849.1,13847,15440,11844,10320,17320,15680,8604.2,12503,20699,18980,15419,20693,22372,20326,20855,18618,18585,20889,18284,13453,16127,23076,17646,13716,18205,20424,13056,10285,13805,11099,8577.7,7561.7,4682.4,5656.6,6088,1362.3,-3672.4,1156,2467.1,-5487.8,-4837.5,1100.5,-134.67,-7405,-4970.3,-1945.9,-4156.8,-4638.9,-6551.5,-7010,-4302.1,-5952.5,-12098,-12944,-5488.8,-9700.6,-16261,-11560,-5990.7,-10432,-14703,-10354,-10137,-12304,-12162,-14314,-13307,-10868,-13680,-18303,-14436,-9009.9,-15845,-17968,-11784,-10627,-18075,-17636,-13115,-15377,-16490,-17304,-19722,-17134,-16192,-20555,-23358,-16257,-15920,-23759,-22375,-15304,-16000,-21715,-18402,-16223,-19594,-19638,-20619,-20582,-16950,-16779,-20745,-19703,-12193,-16769,-21427,-15916,-11277,-16610,-18297,-11516,-10842,-12677,-12721,-14318,-12026,-9520.4,-13228,-17952,-12578,-7113.4,-14387,-15274,-7359.6,-5422.8,-11880,-9341,-4401,-5054.1,-5089.4,-5352.4,-5589.3,-2409.4,-2071.2,-7419.4,-9513.5,-677.43,-1428.6,-8787.6,-6587.8,385.42,-1556.8,-5671.2,680.74,3379.5,1163.3,1492.6,-295.4,1483.1,6259.8,5546,860.66,2802.6,9776.1,3831.9,369.55,7303.7,12098,6429.6,5794.9,11921,11961,11245,11018,8770.1,12271,15639,12578,9372.8,16842,20637,13236,13956,21686,21582,14793,18631,22115,19225,18915,17846,17920,22238,22953,17614,16477,24671,21961,16024,20742,26897,21345,15565,20038,20217,17306,16965,13803,14496,17616,15611,11615,16303,21847,13265,10378,16943,18811,10800,9075.2,12419,9960.1,7527,5049,3119.6,7451,10254,5978.3,3234.3,11093,11424,2885.5,4068.3,10671,7930.8,105.09,2777.9,4465.1,1552.8,1192.7,-980.83,-905.39,2935.3,2219.2,-3493.3,-2690.8,6038.4,1600.6,-3461.4,1645.7,6317.6,197.79,-4213.9,-224.53,-1119.5,-3107.4,-3076.7,-5553.2,-2988,137.38,-3332.8,-7555.1,-1070.2,4397.7,-3326.2,-4301.5,1983.5,1593.7,-7309.2,-6975.5,-2811.9,-5992.8,-6531.7,-7071.9,-8669.9,-5796,-5982.7,-13232,-16696,-8963.7,-12354,-23570,-25145,-23810,-32449,-42733,-40617,-41655,-46965,-48805,-52760,-51987,-47634,-49161,-54370,-51961,-43607,-50182,-54786,-47706,-42908,-48707,-47994,-40610,-40695,-40211,-37077,-37222,-32874,-28803,-32374,-34732,-25520,-20493,-27991,-26720,-17783,-16674,-22613,-16867,-9282,-8274.8,-4481.6,-3048.4,-1446.5,4856,6436.7,2080.8,3442,13593,9973.6,3566.9,9268.3,15866,11184,7878,15916,18581,17236,18558,17206,19419,23263,21104,16653,22889,31111,21842,17201,23574,26147,18691,19799,25588,24234,24234,24470,22655,25910,27004,21436,18732,28535,29171,18231,19084,26347,23666,16142,21476,24900,22024,21849,19584,19583,23332,21901,15161,16044,25199,17192,8683,12951,17513,10439,6315.9,12286,11495,9146.5,9469.9,6936.3,8487.5,10993,7473.9,2338.7,9104.4,14472,3337.8,-427.59,7705.4,10048,1472.1,3444.9,8697.2,5996.6,5754.8,5259.4,4364.8,7821.6,7880.9,1505.4,-1524.7,7678.8,5678.5,-3053.7,748.94,7977.5,3275.5,-3456.2,1781.6,2142.5,-1696.5,-1092.7,-3670.2,-3329.5,804.79,-1817.3,-9250.5,-7072.8,780.67,-7745.8,-13262,-6447.2,-1934.8,-10186,-12440,-5480.8,-6362.5,-7907.3,-7526.5,-10236,-7704.5,-5790.7,-11156,-15764,-7963.2,-6745.3,-18509,-18346,-10161,-10335,-18371,-14526,-10734,-14200,-13699,-15193,-16168,-11734,-11629,-18582,-19780,-9170.6,-13768,-22836,-17829,-10011,-15064,-20276,-13485,-12871,-15089,-13810,-17462,-16693,-12688,-15675,-21316,-15263,-7216.7,-16788,-19277,-9440.6,-5712.4,-14484,-14212,-7980.8,-10402,-11210,-11094,-12882,-8414.6,-5755,-11235,-14980,-4867.4,-4443.1,-15078,-12541,-2876.3,-3546.6,-11007,-5890.1,-3119.5,-6909,-6790.7,-8612.1,-8101.1,-2626.2,-2395.3,-9619.9,-8176,2972.1,-3299.3,-9550.4,-2285.4,4640.9,-2618.1,-6566.2,655.55,177.23,-2369.9,-1304.3,-3771.6,-523.75,3503.5,-158.3,-5794.2,1749.1,7304.4,-4203.9,-5322.5,5338.6,8158.5,-1127,665.6,6555.9,4250.9,3978.7,2653.4,1334.2,6851.6,8361.2,2025.3,57.285,11589,8762.9,-1022.7,3878,13673,9679,2573,9346.2,11289,8009.7,8802.2,5800.3,6393.3,11447,9445.8,2481.9,6514.3,16143,5986,-429.02,8246.3,14283,5790.7,3744.8,10298,8524.4,7421.5,8156.8,5206.1,9094.1,12261,6161.3,347.27,9102.7,12422,1030.1,2026.4,11883,10723,1208.8,5760.1,10726,7383.6,6786.9,4021.4,2552.3,7098.8,7420,487.53,-529.49,10399,5244.3,-3422.2,3464,12032,5034.7,-1152,5717.8,5895.1,2596.6,3401.5,170.76,2251.4,6978.7,2928.2,-4299.2,1667.8,10075,-183.98,-4377,4777.7,8372.8,-1238.8,-1422.1,4555.7,1576.4,-129.42,-1148.2,-3969.7,258.5,2554.6,-3761.9,-8018.7,2547.4,3245.5,-8390.5,-6817.7,2070.4,-1188.8,-10535,-5161.6,-1474.9,-4878.4,-4652.8,-7757.5,-7801.9,-2402.6,-3011.2,-10276,-8710.1,2269.7,-5747.8,-13636,-6106.7,944.25,-7419.3,-11961,-5032.3,-5521.4,-7310.6,-6469.2,-10223,-6972.2,-2723.2,-8269.4,-15159,-6968.3,68.59,-11870,-13290,-2412.1,-545.93,-11275,-8873.7,-3076,-5521.7,-4925.5,-5420.1,-7044.1,-2328.8,-1961.3,-9413.6,-11347,79.688,-2708.6,-13141,-9016.7,-499.22,-5856.8,-13629,-6219.6,-3762.3,-6844.2,-5740,-8434.3,-5940.2,24.541,-2365.2,-10266,-6409.3,4091.1,-4887.9,-10294,-2042,2488.7,-7000.5,-9029.1,-1341.8,-2366.4,-3719.1,-4171.9,-7581.3,-3418.3,550.96,-4601.4,-9668.5,-168.46,3054.4,-8641.2,-7617.1,1535.8,-322.91,-10396,-5968.3,-1206.7,-3841.2,-3229.5,-5099.6,-5976.3,-758.89,-747.88,-9220.7,-9488.1,3802.7,-1131,-10602,-3654.8,4763.3,-2100.9,-8379.8,23.742,1585.8,-1176.8,-361.36,-3942.9,-1941.7,2670.2,-731.1,-7576.4,-1518.7,6493.4,-4933.6,-8213.7,2217.7,5372.8,-5655.4,-5364.7,1868.3,345.22,-162.02,-1013.3,-3848.3,954.89,3482.4,-2696.4,-5889.3,5986.6,6639.5,-5328.4,-2658.1,7544.6,4393.5,-4463.8,1787.6,4927.1,1603.8,3288.5,1651.1,2118.7,7532.8,6240.6,-1912.4,152.86,12408,4092.4,-3548.6,4841.6,11213,1878.6,-3290.9,4128.5,3468.6,1254.1,2329.3,-602.5,2456.4,6651,2616.9,-3732.6,4979.3,12191,584.43,-347.3,9966.9,10771,-431.84,1913,7877,4624,3678.1,1765.1,448.87,6330.7,7604.4,87.144,-1952.3,10600,7899.4,-3730.7,385.97,9932,4794.8,-3395.4,3725.1,5787.3,2660.9,3517.8,-165.9,1184.5,6373.1,3756.3,-4045.7,627.52,11823,1598.9,-4981.2,3305.4,7992.3,-2143.1,-4085.8,3610.7,1539.8,-609.59,-1185,-4779.9,-570.5,3246.2,-2036.1,-7306.9,2490,6005.4,-6397.8,-6403.8,3352.3,1429.7,-9579,-4532.7,470.86,-3034,-2612.1,-4469.2,-4512.3,1171.7,644.17,-7495.8,-7552.9,4454,-1755.2,-11939,-5917.6,2132.2,-4922.7,-10781,-2929.5,-2588.9,-6063.9,-5499.5,-8826.5,-6486.6,-1746.5,-5482.7,-13010,-6657.3,2540.3,-8710.2,-11827,-1644.7,791.1,-11022,-10824,-2726.2,-4127,-4800.5,-5436.7,-7959.3,-3328.1,-1111.2,-7587.7,-10580,1696.5,1958.6,-10233,-7576.3,1907.1,-1928.2,-11931,-6309.7,-3623.2,-8003.2,-7102.1,-8708.7,-6906.6,-504.4,-1365.3,-9261.1,-7077.9,5108.5,-3261.8,-11573,-4410.3,1822.2,-7155.7,-11050,-2322.4,-2820.1,-4649.7,-3387.8,-6472.6,-2774.4,1490.8,-3588.8,-10003,-974.28,6029.4,-6225.1,-7879.3,2681.8,4100.7,-6434.5,-4329,1192.7,-2223,-1583.3,-2204.9,-3863.1,1096.3,2445.6,-3994.2,-6151.7,5562.5,2328.3,-9100.2,-4865.9,4311.3,-764.25,-8312.7,-830.66,1475.1,-1404.2,-368.96,-3537,-1846.2,3393,412.18,-7947.8,-3591.4,8253.6,-1181.7,-6857.3,2061.1,7239.4,-1977.5,-3204.9,5097.4,3367.7,1109.9,906.88,-1548.3,2667.5,5386.6,-718.76,-6008.6,4118.4,7664.5,-4704.9,-4250.5,5496.5,4063.7,-5611.3,-442.27,4271,298.38,377.27,-1508.7,-2148.9,3127,3372.4,-4453.6,-4815.3,8652.3,3148.5,-7295.1,-1467.5,6939.9,658.49,-4467.8,3558.5,3794.6,390.51,1303.8,-1715.4,1830.8,7751.5,3654.8,-3903.9,2694.3,11183,-722.59,-4658.5,5115.7,7764.1,-2498.1,-1198.2,6123.7,3503.3,2781.7,1991.4,-1420.3,3354.8,5639.7,-1669.7,-6018.3,5947.1,6208.4,-6332,-3464.8,7241.3,4718,-4399.6,1937.6,5481.3,2148.3,2621.4,-399.19,338.31,5887.8,4327.5,-3503.6,-1046.9,10332,692.39,-7803.9,305.28,7020.3,-1922.8,-5607.2,2815.1,1977.5,-367.19,558.95,-2713.8,165.69,3586.1,-1129.5,-6942,1592.9,6514,-6965.2,-8752.2,1525.5,2950.5,-7701,-4905.7,1429.5,-1585.6,-1916.6,-3879,-5799,-470.89,644.62,-7348.8,-9952.5,2212,-1424.3,-12554,-7905.8,1695.9,-2806.6,-10161,-2773.1,-1322.1,-5110.8,-3906.5,-7113.5,-5601,-321.9,-3228.2,-11206,-7398.6,2927.1,-7633.7,-13919,-4907.5,653.26,-8409.9,-9346.9,-2019.9,-3607.9,-4462.5,-4201.6,-7881.1,-4056.6,-1060,-7434.3,-12497,-1778.6,788.34,-12428,-11757,-2016.4,-3144.2,-12843,-6715.1,-1116.9,-4407.1,-3610.9,-5790.5,-6430,-590.16,-1051.6,-9369.9,-9751.2,2842.4,-3205.3,-13529,-6911.9,1840.6,-5088.2,-10539,-1030.2,750.37,-1800.9,-1566.1,-5438.4,-2361.3,3385.3,49.9,-7178.2,-861.87,7388.8,-5198.9,-8504.6,2451.5,6401.7,-4463.7,-4097.7,3395.3,1575.4,1048.3,831.68,-1481.9,3663.4,6132.6,-776.15,-4251.1,7498.3,6733,-5991.6,-3084,7894.3,5140.1,-4159.8,2568.2,6005.8,2756,3717.2,1044.9,1507,6676.1,5107.9,-2544,11.293,11752,2988,-4935.8,3815.6,10527,1088.4,-3110,4678.5,3280.8,595.2,1493.7,-1685.8,1947.4,6468.9,1677.1,-4534.5,4324.8,9790.6,-3414,-4047.5,7759,9673.4,-1094.5,2151.8,8013.4,4233.5,2702.9,-386.94,-2850.5,2237.7,3253.5,-4073.6,-5760.8,6742.7,2911.8,-8261.4,-2816.5,6193,472.77,-7683.5,-490.75,827.42,-3006,-1606.9,-4180.8,-2507.7,2485.4,-785.16,-9115.2,-4733.2,6347.9,-4031.8,-9062.1,1118.7,6661.1,-3756.3,-5994.4,1043,-1404.2,-3175.7,-2904,-6097,-2191.8,1186.3,-4765.4,-9560.3,1088.6,4187.4,-7519.7,-5761.1,4464.2,2260.1,-8771.8,-4626.3,-997.7,-5172.1,-5145.2,-7539.9,-8022,-2490.8,-2828.1,-10249,-9321.2,4135.5,-1812.8,-11337,-3924.9,4626.4,-3214.6,-28887,-30506,-27461,-28211,-34816,-37912,-30451,-32351,-40458,-38295,-32776,-37154,-43341,-38529,-36331,-37667,-36557,-38170,-35988,-31335,-32655,-37505,-34994,-27798,-35467,-40727,-35043,-31001,-36282,-36480,-29197,-28405,-28181,-26964,-29144,-24769,-20769,-24014,-27275,-19664,-16414,-25156,-24968,-17403,-16404,-21355,-16075,-10245,-9718,-7396.7,-6863.6,-5422.5,328,2667.4,-1022.9,-1037.5,7735.2,4358.7,-2621,1771.1,8288.7,4409.9,1415.3,8614.3,11703,11904,15005,14974,19115,25477,25889,22652,27023,34981,29653,28146,36185,40245,34412,34768,39331,38630,38885,39476,37539,39983,40058,33192,27805,33692,35394,29370,32607,40236,37210,28648,27639,24432,17622,13146,7188.9,5226.6,7493.5,5475.9,-1359.8,-2319.1,4833.6,1635.3,36.015,9246.9,16662,11483,6614.8,7871.6,4503.4,185.95,-2275.9,-6847,-4817.5,-567.58,-2309.1,-5844.5,77.848,5347.4,-800.66,165.97,8187.6,9944.9,3571.6,4285.9,6355.5,2577.8,291.49,-2639.3,-4542.1,-1415.9,-1819.4,-7629.5,-10511,-4890.6,-7799.9,-15579,-13500,-8023,-11182,-16481,-13136,-12872,-15430,-15117,-18386,-18103,-14174,-15462,-19929,-17092,-10235,-16463,-19906,-12710,-7527.5,-12286,-12430,-7017.2,-7668.1,-8743.3,-9356.6,-11455,-7573.9,-4392.1,-7782.5,-11824,-6612.2,-5905,-14702,-14864,-7876.4,-7448.2,-12735,-8822.3,-4597.2,-5223.2,-4218.3,-5708.3,-6601.4,-3124,-2157.7,-6575.6,-6903.9,965.8,-2601.3,-9073.5,-5895.4,-220.39,-2596.8,-4263.1,2374.5,5382,5247.8,6712.3,4799.7,5966.1,8206.5,5652.9,1400,5152.5,9910.9,937.38,-3075,2010.1,3913.1,-1734.9,-11.332,5692.4,5161.2,5670.7,6618,4534.1,5855.7,6504.2,1522,-2003.3,3697,2534,-6516.1,-6918.2,-2595.4,-5414,-11386,-7584.9,-4468.5,-5479.2,-4780.7,-7298,-8046.1,-5574.3,-7568.6,-13457,-13775,-7725.1,-13485,-19190,-15380,-11625,-16356,-17663,-12306,-11868,-13186,-12787,-14295,-12249,-10450,-13424,-16698,-10572,-5189.7,-10476,-10475,-4211.9,-3123.1,-9263.1,-7880.4,-4214,-4683.8,-3742.7,-4049,-4102.7,-41.874,1711.2,-1644.1,-2660,5215,4898.4,-1238.7,1662.2,7690.9,4642.7,142.66,3976.8,5670,4702.5,5642.1,3648.1,3681.4,6373.1,4582.6,171.52,3203,9872.2,4471.6,333.58,4036.4,6381,1087,-238.25,3369.1,2209.6,1367.8,1377.8,274.8,3581.3,5871.5,2361.7,-992.7,5054.6,7887.7,1629.7,2022.8,7038,6054.4,-302.97,1292.1,3928.9,2343.5,2956.7,2580.3,3601.5,6994.9,5731.3,1042.9,2283.4,10891,9897.9,6201,9375,12522,8150.5,4370.4,6735.3,4994.8,3192.5,3805.7,2532.4,4367.1,6922.9,4706.6,1795.2,5810.7,11536,7109.3,5503.7,9751.5,9962.4,2820,1574.9,4172.6,2870.5,2102.9,1876.7,868.51,3307.1,4009.8,266.69,-909.51,5446.9,7113.1,2808,4033,7511,4092.7,-2683.5,-2491.2,-2933.7,-5711.4,-5470.9,-6351.7,-5242.9,-620.54,-706.4,-4489.4,-3301.5,3097.5,874.57,-1825.2,1749.6,3709.3,-1080.3,-3550.4,-1051,-2688,-4456.1,-4402.6,-6094,-4021.2,-1138.8,-2453.7,-4546.6,15.859,4014.5,-619.33,-385.83,4285.9,4331.4,-1446.6,-1650.5,-416.97,-2944.5,-3619.3,-3744.3,-4149.4,-1836.3,-1529.5,-4667.4,-5001.4,630.96,164.99,-4163.6,-2617.5,778.88,-2587,-7074.1,-6039.2,-6663.3,-8691.3,-8974.1,-10609,-10103,-7635.8,-9220.8,-13002,-10391,-5292.7,-9632.5,-12209,-8873.3,-7321.1,-11985,-13414,-11069,-12267,-13835,-14794,-16476,-14359,-12164,-14364,-15709,-10540,-9094,-14472,-14385,-10582,-11717,-16270,-14304,-11758,-12250,-10946,-10664,-10571,-9706.2,-11552,-15245,-15206,-9386.7,-11107,-14891,-12153,-8124.9,-10201,-12346,-9329.9,-8452.8,-8711,-8375,-9069.9,-6611.6,-2509.8,-2054.4,-4570.9,-1972.4,1090,-3109.2,-4016.8,488.22,2618.3,-23.168,2177.4,6195.9,6141.6,6772.5,7026.1,6266.1,8453.3,9603.5,6808.8,5917.5,11465,11978,6828.4,7068,11312,11520,9383.7,12306,14243,14016,14631,13264,13224,14397,13597,11289,12531,16849,13016,9019.2,11912,15057,12901,12432,15389,15102,14208,14091,11721,11131,11993,10097,8425.3,10194,10418,4092.9,1828.7,5125.1,6005.1,3430,4663.9,6999.5,6407,6056.9,4555.7,3110.8,4750.7,4964.1,2098.3,969.83,3917.1,685.41,-5450.4,-5444.8,-2543.2,-3479.7,-4935.4,-1262.7,473.06,152.81,99.703,-1843.4,-2670.4,-1724.1,-2942,-5730.9,-5600.7,-4149.7,-9076.4,-12233,-10025,-8306.7,-9789.9,-8082,-4447.3,-4512.3,-3499,-3417.4,-5406.9,-5470,-5108.5,-7184.3,-9354,-7574.9,-8272.8,-13437,-14311,-11384,-10919,-12345,-9000.9,-5943.2,-5917.9,-6056,-7434.7,-8695.5,-7723.7,-7388.2,-8688,-7465.7,-4175.1,-7262.3,-11000,-9854.4,-7507.3,-8069.8,-8444,-5511.9,-4200,-3591.6,-3028.6,-4502.4,-4536.7,-3732.8,-4823,-6437.8,-5215.8,-3792.2,-7305.2,-7952,-5074,-3863.4,-6359,-6892.2,-4927.8,-5317,-5111.8,-4865.2,-5343.6,-4018.6,-3247.9,-4779.4,-6453.8,-5954.6,-6547,-8634.2,-7518.2,-5188.2,-5724.6,-7115.7,-4699.2,-3413.6,-3933.5,-3752,-4496.7,-5114.3,-4621.5,-4502.8,-5491.8,-4362,-1189.9,-2313.8,-3630.6,-2189.1,-705.37,-2331,-2957.7,-879.95,-134.08,-377.39,-27.2,-195.21,1843.8,3507.3,3004,2609.4,4643.9,5924,4352,5748.8,9561.4,11568,10394,10228,10925,11016,11864,11844,11351,12152,12779,12420,11546,12464,11458,10096,11115,12008,10407,8159.3,7744.8,6736.4,4544.9,3259.8,1575.6,272.92,-345.1,-2262.4,-6528.1,-11078,-15340,-22362,-27905,-29653,-30659,-31283,-29442,-24526,-19874,-16545,-13532,-11372,-9334.8,-7577.3,-6934,-6727.3,-4600.2,-2198.1,-1431.6,694.52,4502.8,5779.1,6191.6,8858.1,11809,14227,17648,23191,31916,39296,43535,44258,44377,45687,45657,45582,46406,46313,43372,40482,38603,34453,29929,27402,25557,24560,23576,21294,18835,17959,17094,13945,11648,10381,6288.8,-195.96,-5732.8,-10920,-17523,-23199,-28554,-33554,-36967,-40511,-44509,-47466,-47999,-48098,-48653,-47832,-46620,-47499,-50247,-52263,-53742,-55562,-56454,-57252,-56703,-54917,-54356,-53918,-52041,-48877,-46986,-44613,-40987,-37912,-37223,-36977,-35601,-34563,-33203,-31694,-30049,-27218,-24758,-23726,-22555,-19285,-15539,-14711,-13328,-11290,-10680,-11516,-11778,-11679,-12313,-12583,-12230,-11703,-9526.7,-7147.7,-4927.1,-1624.7,4362.1,9751.2,15041,22246,29459,33062,35030,38803,41610,43418,45294,46263,46533,46623,46649,46633,48419,51104,51320,51923,53921,55964,55929,56588,57920,57212,55414,53125,50526,48342,45586,42235,39135,38268,37655,35166,32958,31582,29064,25042,23030,21747,19065,17087,15563,14065,13050,11178,8297.4,6293.5,7041.6,5705.9,3492,3019.7,2291.9,-243.79,-1946.8,-2750,-4762.4,-6661.7,-7543.4,-9316.7,-10508,-11091,-12968,-15688,-15740,-14042,-14848,-15008,-13877,-14719,-17160,-18291,-19114,-20851,-22383,-23307,-23542,-22870,-22333,-22557,-21995,-19595,-18639,-19632,-19491,-18704,-19312,-20811,-20222,-19972,-21008,-21151,-21998,-22356,-21238,-21266,-22365,-22342,-19885,-19727,-20247,-19194,-18013,-19231,-20624,-20820,-21791,-21681,-21091,-20986,-19957,-19162,-19810,-20352,-18689,-16301,-16445,-16568,-16396,-18146,-20983,-20948,-20599,-21748,-22500,-23603,-24925,-24495,-24769,-26027,-26503,-24328,-23545,-24588,-23359,-21714,-22209,-22973,-21276,-20153,-19076,-17106,-15632,-13475,-10374,-9029.3,-9575.4,-7649.3,-3833.7,-3652.6,-3317.8,-1101.8,365.22,8.3392,1682.8,4502.3,5571.1,6770.1,8262.5,8985.9,10210,11286,11195,11080,13301,15261,14147,13971,14879,14293,12560,14106,16795,18163,20239,21667,22770,24154,25289,26576,28328,30988,29721,25871,24557,24358,22628,21885,23580,23976,23196,22813,20674,19365,18942,17839,16158,16416,16263,12701,9954.6,10508,11040,9632.4,10823,13441,14458,15367,16306,15806,16433,17036,15678,13989,15225,13538,8196.9,6102.8,7121,7233.9,6508.8,8731.9,10715,11501,12972,12677,12351,12389,11413,9514.7,9013.4,10066,6641.5,2561.8,2016.6,2373.5,322.86,-605.56,787.28,778.52,614.84,1532.2,824.43,242.6,323.19,-1040.9,-3143.4,-2741.2,-2090.2,-6183.8,-8647.4,-7571.4,-7553.7,-8898.8,-7644.1,-5458,-4273.7,-2554.9,-1657.3,-2070.8,-1422.3,-1476.8,-3570.9,-4450.3,-2857.2,-5602.9,-10508,-11507,-10411,-11137,-11866,-9539.8,-8793,-9070.8,-8152.6,-8559.8,-8713.8,-7649.3,-8403.5,-10566,-10790,-9338.9,-12752,-16388,-16402,-15487,-17308,-17477,-15614,-15538,-16399,-17416,-18671,-18177,-17830,-19705,-21358,-20676,-21654,-25600,-26583,-24962,-25340,-27238,-25567,-22812,-22447,-22139,-22254,-22128,-21446,-21811,-22912,-22957,-20548,-21636,-24467,-23762,-21430,-21211,-20613,-17640,-16601,-15601,-13949,-13812,-13059,-11428,-10871,-10981,-9656.4,-8491.1,-11459,-12664,-10223,-8546.8,-9501.4,-8728.4,-6565.9,-5619.7,-4994.3,-4324.5,-4022.3,-2532.4,-1787.7,-2200.7,-2367.2,258.05,1024.3,-332.37,773.83,3046.8,2953.8,2220,3790.3,4729,5028.9,6092.5,6036.5,6198.3,7971,8326,6749.2,6755.7,8170.4,6814.9,7299,10936,14165,13358,12015,11843,10729,9335.9,8173.9,6763.1,7194.7,8435.1,8609.6,7825.6,8908.7,11112,11401,13234,16506,16970,15184,14624,13674,12153,11829,11694,11812,14289,15560,14720,14654,17222,17660,16830,18754,21300,20273,18417,18777,17338,14919,13777,12367,12359,14606,14785,13714,14726,17262,16573,16166,18262,19707,18094,16648,15798,13234,11181,10344,8774,8696.4,9233.6,8697.8,8437.3,10565,11030,9199.8,10045,13056,13625,10960,9530.2,8285.7,6641.5,5483.3,4087.3,3843.3,4348,3413.3,1271.7,628.43,2889.7,2640.1,1813.2,3465.7,5418.2,4389.8,2239.9,1744.9,43.368,-2792.4,-4663,-6468.3,-6567.2,-5681.8,-5788.8,-6913.1,-5707.7,-4101.7,-5415.4,-5393.1,-3317.5,-3172.9,-6248.9,-7992.9,-8138.9,-9521.1,-11112,-12867,-13881,-13660,-13538,-14620,-15543,-13413,-13154,-15568,-14770,-12872,-14034,-16566,-16748,-16784,-18247,-19916,-21878,-21775,-20406,-20321,-21269,-20853,-18556,-20278,-22102,-21267,-20833,-22819,-23663,-21883,-22332,-23187,-22612,-22967,-22316,-22211,-23247,-24728,-23886,-22740,-24626,-24411,-22069,-21591,-23248,-22866,-22065,-22964,-23774,-24609,-25220,-24111,-23404,-24519,-25233,-23335,-23392,-24622,-23289,-21152,-21114,-22058,-20320,-19178,-19398,-18949,-20041,-20099,-18608,-18826,-21076,-20229,-17163,-18282,-18344,-15112,-12548,-12651,-11772,-8585.8,-6264,-4418.6,-3294,-2112.5,110.29,2071.8,2944.3,3846.7,7263.1,8847.7,7437.8,9131.7,12663,14151,13983,17027,19954,20980,22864,24201,25225,27493,28625,27792,28402,31893,32741,33527,36706,38901,38237,37997,40543,41576,41817,43025,44140,45505,46735,6756.3,7971.5,9446.2,10275,9518.6,7331.8,4760.5,4997.5,5971.4,6641.1,10165,14549,15464,13886,12021,10693,9069.1,7654.5,7187.4,6355.7,5327.5,3091.4,-353.71,-1669.2,-1749.4,-4374.5,-4631,-2165.6,-2321.8,-2919.4,-528.73,1280.7,-491.03,-394.05,205.63,-1359.3,-2777.9,-4641.7,-6398.5,-7084.5,-7419.6,-9613.8,-14169,-15614,-12046,-11293,-14644,-16684,-19104,-21033,-20299,-17717,-14787,-13996,-15852,-17542,-15965,-12108,-10877,-10548,-8678.7,-8554.6,-11133,-13576,-14337,-15166,-15437,-14503,-15781,-17060,-14958,-13055,-11311,-5333.6,-1973,-2823.8,-1555.9,-1799.6,-5942.4,-11282,-12778,-11098,-10368,-11778,-14145,-14926,-15923,-18134,-18268,-16539,-12298,-7784,-4645.4,-206.16,1676.2,-1834.3,-6360.3,-7778.2,-10734,-14542,-15442,-17171,-15168,-11322,-9169.6,-9768.4,-10521,-7933.7,-6625.9,-4728.6,-1005.2,-987.8,-5214.3,-7862.3,-9654.8,-13904,-16630,-16063,-13361,-6974.5,-2823.5,-2347.9,-2956.3,-957.61,1106.7,2563.3,4549.5,6127.2,3370.2,-2408.3,-3901.8,-4783,-9427.4,-13619,-15248,-15359,-13124,-10255,-9028,-7934.5,-4731.9,-1891.9,-110.43,2814.1,5721.7,5629.1,3828.2,3769.9,2040.5,466.19,560.38,534.25,3070.6,6897.7,8517.3,9111,12293,15675,14253,12204,11510,7768.5,-228.44,-4162.5,-546.14,5406.6,11769,16431,18988,20604,19271,16960,16304,17231,16350,12569,13584,18687,21348,19624,19493,19204,16646,15820,16998,18298,18922,19582,17895,18407,21169,18523,15633,17429,21741,20747,18218,20918,21184,19835,21023,21203,21158,20512,18033,14783,14341,15895,12286,9296.4,9642.5,10046,8759.3,10282,11833,10208,10208,11931,12621,15361,14658,5301,-90.949,4595.4,4924.8,1066.2,-1616,-3414.7,-2265.7,321.94,9363.1,18586,20430,18215,10070,2156.3,-2158.5,-8437.6,-17701,-26094,-32671,-41729,-47216,-47863,-46408,-45110,-41028,-32323,-24853,-17518,-9292.3,-8792.4,-14416,-18371,-21013,-22798,-19493,-16941,-24697,-32707,-34948,-36592,-38769,-34529,-27592,-24540,-22697,-23101,-25013,-25149,-25054,-25128,-23121,-18678,-19308,-25131,-27048,-24498,-22597,-21183,-16813,-13184,-10245,-5813.6,-4817,-4649.7,-3402.3,-3974.4,-7361.1,-8568.9,-8689.8,-15520,-19078,-14969,-11670,-12643,-11823,-6854.3,-2076.7,1816.5,3515.8,1599.9,2484.4,5535.7,5692.4,3889.5,4536.9,2856.6,-3903.7,-6115.9,-1179.2,849.66,-561.35,3504.1,6891.2,6603.4,7423.1,6650.6,5314.7,5716.2,6697.5,5825.4,5629.4,7808.4,3741.8,-2530.2,-3501.9,-1906.2,-2717.5,-2465,4135,6893.9,6880.5,8119.5,7063.9,7445.8,9376.3,9306.9,7193.5,7805.9,9152.2,4022.9,1553.3,4470.2,8081.1,6553.8,3970.8,2632.9,-1005.5,-4466.9,-4652.8,-2557.7,1836.8,4365.9,3388.8,1591.9,4212.7,4769.4,3054.4,5961.3,9794.3,9459.3,6860,6038.6,2207.2,-3459.1,-6124.3,-7635.9,-5349.1,1109.4,4742.6,4992.6,5861,8565.4,6724.1,4238.7,6865.8,10683,9092.8,6911.1,8042.9,6960.7,4546.5,2051.4,-1556.8,-1179.2,612.98,1368.7,2551.6,7555.7,10994,8326.6,8342.5,10632,11328,10687,15116,18585,13987,8209.8,4237.8,3663.3,6691.7,7217.8,6876.7,9616.8,15099,16201,14820,17428,21308,19899,15546,14538,12709,9984.5,8762,6386.9,4680.3,2486.3,-2110.6,-4077.2,1160.7,10651,16912,21333,24401,24163,20243,15775,12535,7728.2,3593.9,2657.7,3413,5332.9,6139.1,5328.9,4435.2,6263.9,7373.8,6035.6,7163.1,9513.6,7046.8,1018.4,-818.58,-1914.8,-4351.3,-5409.2,-5422.1,-5147.2,-3869.2,-4852.1,-7602.4,-8476.3,-6989.1,-8727.4,-10323,-9492.3,-9346.8,-11772,-15403,-16113,-15522,-13829,-13126,-16322,-18309,-18044,-18353,-18164,-16758,-16203,-18755,-18902,-16159,-14833,-16785,-17967,-18123,-20976,-23705,-26565,-28954,-28165,-27185,-29505,-31619,-29987,-28956,-27713,-22288,-17433,-17157,-20174,-23204,-26323,-28767,-29294,-28423,-25612,-24192,-24102,-22797,-20929,-18939,-19896,-19774,-15554,-10699,-11099,-12767,-13807,-15159,-17539,-21092,-23708,-22736,-22287,-23302,-21325,-16113,-10551,-7348,-3149,848.68,934.41,-2149.3,-3686.4,-4273,-5863.3,-6944.4,-7010.5,-5442.4,-3125.3,-1971,-1910,-46.315,4537.5,4930.4,3363.6,4322.7,4138.2,520.89,-3419.4,-4060.6,-4836.4,-4374.2,-343.96,2084.7,2082.9,1417.5,151.53,-1592.3,-2404.5,-1530.2,-2181.4,-1759,-185.96,-485.17,-3035.6,-3185.7,-831.82,984.4,4339.2,5723.7,5440.3,7472.6,10908,12961,14683,19546,25375,29926,35467,41837,44721,45936,47005,46406,47092,52028,57494,64425,68881,66715,61695,59101,60143,59037,55184,51724,47418,40649,35895,35594,34374,33498,32952,31357,31214,32956,32490,29997,27805,24933,19726,16394,15060,12078,8123.5,7012.4,7397.9,4663.2,585.37,-3088.4,-5956.8,-6129.9,-5328.4,-6203.3,-8507.5,-11693,-17856,-24538,-28415,-30602,-30606,-28584,-21942,-18353,-19188,-20561,-23280,-25351,-28277,-30928,-32160,-32840,-32577,-34608,-36086,-35642,-34679,-34095,-32452,-29099,-27657,-26893,-26251,-26848,-25838,-25497,-28761,-33893,-36037,-36005,-35947,-33661,-30037,-29003,-29999,-29742,-26595,-23597,-21243,-20307,-20199,-19137,-17887,-16474,-12456,-8836,-10128,-13225,-14285,-13927,-16136,-17327,-13005,-8824,-8798.7,-8227.4,-6764.7,-4290.4,-2936.7,-8402,-10961,-3307.8,1488.3,-2776.8,-6803.7,-6331.7,-2734.1,-1230.4,-426.56,-337.18,-1880,-871.63,2365.7,3277.1,3526.3,4276.1,4211.2,2830.7,2726.4,2160.8,-159.55,1715.5,4247.7,2782.3,1732.5,4111.5,6137.4,6108.3,5084.3,3515.7,3349.1,4822.6,5100.9,3888.7,2661.5,2394.5,-460.76,-3121.7,-3425.2,-3529.5,-3348.2,-972.83,3594.1,6787.2,8838.4,10559,10370,10483,10804,10152,7696.9,4560.6,520.4,-3931.5,-5160.1,-2997.4,-178.07,1195.3,3496.8,5909.9,7560.5,8528.4,7400.4,7348.5,8362.9,8302.4,9189.7,10157,10891,9072.4,6190.7,5754.9,5800.7,2946.9,-707.73,-2903.6,-1785.5,3579.1,8761.4,12246,14744,15194,14521,12300,10308,8010.9,3901.1,-853.42,-4857.9,-6370.2,-2963.8,4162.4,10292,12645,13182,11114,8008.4,7412.5,7175.1,6994.5,7528.1,7703.4,5920.1,2365.4,267.57,-74.586,106.27,1369,3116.5,4008.5,4149.2,4104.2,4309.9,4946.1,5713.2,4316.9,1073.5,-732.01,-204.52,-49.777,-969.7,-1835.5,-2558.3,-4001.1,-4263,-867.52,91.685,-1117.4,-1903.2,-3748.6,-4578.1,-3544,-778,3813.3,7246.8,6340.8,2700.6,1172,1304,1043.8,-1230.8,-3343,-6127.5,-9045.4,-8905.9,-8693.9,-9012.1,-7035.5,-6684.8,-7103.2,-3995.4,1512.6,4605.8,4389.9,5619.9,5776.7,3007.1,-439.41,-327.67,1499,1740.4,2034.3,550.02,-1041.4,-1905.7,-2998.6,-3151.2,-4028.3,-7109.7,-12106,-14767,-10406,-5718.9,-4693.9,-5879.3,-5045.5,-4024.4,-3783.8,-3626.9,-4544,-4974.2,-6978.9,-10854,-12523,-10083,-6325.4,-4516.2,-3443,-3089.9,-4640.4,-7166.7,-7411.1,-7547.9,-9420.3,-12108,-13975,-15450,-16364,-18965,-20011,-17185,-10996,-5955.4,-3658.4,-2288.5,-2270,-4116.8,-7061.6,-8520,-9528.3,-10151,-9744.9,-9979.8,-9016.5,-7934.6,-9233.1,-13260,-14002,-8482,-1696.4,5751.4,10675,12008,8360.6,3752.9,2140.4,1804.3,2890.5,5724.5,7080.2,8357.6,7523.9,4090.3,2389,2857.3,2647.6,1168.9,1896.2,2229.9,-498.31,-1920,-1369.5,-4591,-7556.9,-6922.6,-6901.2,-7193.6,-6156.6,-5650.2,-5913.6,-6699.5,-8159.8,-10614,-12614,-9309.3,-1640.2,5284.2,9337.9,9911.8,7150.1,4125.9,1392,-1951.3,-2815.3,-1806.1,-2788.6,-4442.3,-3177.4,1706.5,5109.9,7768.1,9301,7387.3,3520,947.14,-338.82,-1294.2,-1110.4,-1386,-2180.5,-1788,-1974.1,-3082.7,-3204.6,420.19,4329.1,5364.2,8751.5,12305,13209,10665,6539,1225.9,-3394.1,-6143,-6120.6,-2469.7,2584.8,3746.9,1973,1594.8,3705.5,3252.7,2095,2790,2739,-82.982,-3478.8,-5029.9,-7183.3,-8517.8,-8357.5,-8691,-8730.9,-8346,-8155.9,-9555,-8555,-6523.1,-8335.4,-8649.1,-5229.1,-3641,-6120.8,-7084.9,-8216.5,-13438,-17471,-19292,-19209,-17294,-17665,-20485,-21310,-15781,-10631,-8059.7,-4522.2,-2540.1,-4231.9,-7565.3,-5009.3,-1546.3,-4454.4,-12200,-20010,-24634,-21061,-15246,-10402,-4445.9,3393.9,3105,1444.4,5454.8,9511.4,10316,11277,14304,15078,14799,14606,12187,13220,16809,18373,16650,19610,23997,21974,22643,27121,29789,27582,29667,32288,29539,24706,21181,18791,25047,34858,41902,43467,42934,38838,31944,30716,32094,27774,20850,20020,20317,20632,21809,21012,19193,17647,13768,5524.4,-1382,-4779.7,-11788,-15339,-12583,-9703.5,-9936,-12014,-15972,-20316,-18707,-13972,-12105,-11782,-13332,-17073,-20457,-18769,-20001,-26886,-28843,-23951,-20915,-20854,-16745,-13186,-13858,-12687,-13487,-15761,-15166,-14535,-16152,-14454,-9355,-10402,-17370,-20777,-21506,-25097,-28814,-27213,-26030,-23674,-18493,-15056,-12161,-11013,-15502,-22792,-25016,-23965,-31070,-39602,-41583,-41630,-43882,-39146,-27892,-20329,-15831,-12454,-11638,-12257,-14609,-18539,-18853,-13354,-11038,-18468,-23824,-22729,-21656,-23033,-18262,-9361.4,-2900.9,1522.5,2019.8,1368.2,3580,4131.3,2370.2,2022.9,3179.2,-1794,-8877.9,-10319,-8040.9,-7162.1,-2784,7755,12524,12151,12797,12682,14658,17026,17157,13698,12658,13518,8327.8,5999.9,8296,8761.7,4044.9,2369.2,5430.5,7502.6,10719,12910,13336,14297,13276,12569,12360,14878,13796,8538,9684.2,13191,12420,9550.4,13444,19987,23151,24493,21991,18979,17765,15659,10972,10312,15602,13528,